# SEGGER J-Link RTT Viewer V6.62 Terminal Log File
# Compiled: 16:34:01 on Jan 24 2020
# Logging started @ 07 Jun 2024 21:47:15

00> -2710
01> -611
00> -2689
01> -615
00> -2679
01> -623
00> -2679
01> -607
00> -2666
01> -576
00> -2644
01> -552
00> -2631
01> -545
00> -2603
01> -506
00> -2602
01> -487
00> -2586
01> -446
00> -2556
01> -411
00> -2526
01> -391
00> -2503
01> -355
00> -2480
01> -288
00> -2459
01> -247
00> -2436
01> -226
00> -2427
01> -224
00> -2426
01> -197
00> -2431
01> -186
00> -2436
01> -194
00> -2432
01> -173
00> -2418
01> -157
00> -2436
01> -162
00> -2448
01> -157
00> -2449
01> -167
00> -2445
01> -171
00> -2461
01> -208
00> -2479
01> -234
00> -2496
01> -237
00> -2509
01> -238
00> -2511
01> -275
00> -2519
01> -307
00> -2528
01> -316
00> -2536
01> -294
00> -2547
01> -288
00> -2559
01> -316
00> -2569
01> -361
00> -2581
01> -387
00> -2590
01> -382
00> -2591
01> -386
00> -2584
01> -393
00> -2587
01> -419
00> -2614
01> -447
00> -2626
01> -455
00> -2630
01> -464
00> -2636
01> -475
00> -2634
01> -496
00> -2637
01> -497
00> -2635
01> -476
00> -2634
01> -479
00> -2651
01> -506
00> -2657
01> -541
00> -2664
01> -554
00> -2679
01> -549
00> -2682
01> -542
00> -2676
01> -545
00> -2672
01> -555
00> -2670
01> -558
00> -2676
01> -562
00> -2679
01> -559
00> -2681
01> -569
00> -2681
01> -583
00> -2684
01> -583
00> -2699
01> -583
00> -2704
01> -585
00> -2699
01> -577
00> -2694
01> -571
00> -2698
01> -587
00> -2702
01> -592
00> -2697
01> -584
00> -2699
01> -597
00> -2699
01> -626
00> -2706
01> -622
00> -2712
01> -604
00> -2709
01> -592
00> -2704
01> -597
00> -2697
01> -605
00> -2700
01> -614
00> -2699
01> -601
00> -2698
01> -586
00> -2700
01> -587
00> -2692
01> -604
00> -2699
01> -617
00> -2709
01> -603
00> -2716
01> -608
00> -2706
01> -628
00> -2693
01> -636
00> -2690
01> -631
00> -2697
01> -607
00> -2700
01> -605
00> -2702
01> -607
00> -2691
01> -619
00> -2689
01> -627
00> -2699
01> -607
00> -2701
01> -595
00> -2698
01> -596
00> -2696
01> -609
00> -2704
01> -629
00> -2718
01> -628
00> -2714
01> -622
00> -2707
01> -616
00> -2698
01> -596
00> -2704
01> -599
00> -2720
01> -592
00> -2712
01> -582
00> -2712
01> -591
00> -2712
01> -600
00> -2705
01> -624
00> -2711
01> -649
00> -2716
01> -631
00> -2702
01> -597
00> -2695
01> -585
00> -2704
01> -591
00> -2714
01> -582
00> -2716
01> -586
00> -2707
01> -594
00> -2706
01> -602
00> -2709
01> -620
00> -2715
01> -609
00> -2711
01> -592
00> -2699
01> -596
00> -2699
01> -600
00> -2704
01> -597
00> -2719
01> -599
00> -2716
01> -597
00> -2702
01> -596
00> -2700
01> -606
00> -2708
01> -637
00> -2721
01> -649
00> -2719
01> -629
00> -2709
01> -617
00> -2709
01> -631
00> -2707
01> -625
00> -2712
01> -586
00> -2706
01> -577
00> -2706
01> -589
00> -2704
01> -613
00> -2710
01> -631
00> -2718
01> -632
00> -2720
01> -641
00> -2709
01> -619
00> -2702
01> -608
00> -2712
01> -624
00> -2717
01> -617
00> -2712
01> -606
00> -2711
01> -620
00> -2714
01> -637
00> -2713
01> -654
00> -2715
01> -634
00> -2716
01> -621
00> -2724
01> -618
00> -2716
01> -616
00> -2722
01> -638
00> -2731
01> -634
00> -2731
01> -623
00> -2722
01> -617
00> -2714
01> -626
00> -2716
01> -647
00> -2727
01> -643
00> -2721
01> -626
00> -2709
01> -620
00> -2702
01> -624
00> -2707
01> -632
00> -2716
01> -627
00> -2716
01> -624
00> -2710
01> -621
00> -2698
01> -627
00> -2705
01> -624
00> -2709
01> -617
00> -2711
01> -625
00> -2711
01> -643
00> -2701
01> -639
00> -2706
01> -634
00> -2724
01> -627
00> -2724
01> -621
00> -2721
01> -629
00> -2716
01> -641
00> -2719
01> -633
00> -2725
01> -621
00> -2734
01> -620
00> -2730
01> -635
00> -2722
01> -652
00> -2732
01> -659
00> -2740
01> -643
00> -2736
01> -633
00> -2732
01> -631
00> -2721
01> -645
00> -2722
01> -646
00> -2731
01> -634
00> -2725
01> -628
00> -2719
01> -626
00> -2722
01> -645
00> -2736
01> -659
00> -2744
01> -651
00> -2741
01> -649
00> -2732
01> -638
00> -2728
01> -634
00> -2734
01> -642
00> -2741
01> -640
00> -2737
01> -637
00> -2729
01> -631
00> -2718
01> -637
00> -2726
01> -639
00> -2730
01> -613
00> -2729
01> -613
00> -2736
01> -615
00> -2734
01> -616
00> -2736
01> -627
00> -2739
01> -625
00> -2742
01> -624
00> -2742
01> -634
00> -2739
01> -642
00> -2747
01> -647
00> -2753
01> -639
00> -2747
01> -624
00> -2747
01> -639
00> -2742
01> -651
00> -2742
01> -659
00> -2751
01> -658
00> -2759
01> -646
00> -2745
01> -627
00> -2734
01> -625
00> -2736
01> -622
00> -2738
01> -608
00> -2737
01> -619
00> -2743
01> -647
00> -2741
01> -652
00> -2736
01> -664
00> -2739
01> -656
00> -2736
01> -637
00> -2734
01> -623
00> -2731
01> -622
00> -2729
01> -630
00> -2734
01> -627
00> -2742
01> -634
00> -2743
01> -649
00> -2741
01> -657
00> -2747
01> -666
00> -2757
01> -662
00> -2750
01> -658
00> -2745
00> -1420
01> -743
00> -384
01> 2811
00> -7126
01> -6747
00> -11309
01> -14841
00> -7704
01> -10593
00> -1861
01> -1076
00> -1444
01> 1256
00> -8574
01> -8817
00> -11291
01> -15049
00> -7649
01> -10031
00> -1269
01> -348
00> -591
01> 2611
00> -7997
01> -7778
00> -11271
01> -14927
00> -7869
01> -10416
00> -1419
01> -677
00> -603
01> 2625
00> -8189
01> -7919
00> -11138
01> -14681
00> -7751
01> -10079
00> -1360
01> -604
00> -564
01> 2490
00> -8362
01> -8247
00> -11126
01> -14708
00> -7826
01> -10107
00> -1326
01> -651
00> -427
01> 2555
00> -8358
01> -8276
00> -11231
01> -14782
00> -7900
01> -10183
00> -1310
01> -707
00> -326
01> 2566
00> -8280
01> -8222
00> -11209
01> -14766
00> -7859
01> -10186
00> -1277
01> -724
00> -273
01> 2575
00> -8225
01> -8179
00> -11214
01> -14786
00> -7874
01> -10225
00> -1261
01> -718
00> -245
01> 2627
00> -8197
01> -8129
00> -11217
01> -14809
00> -7873
01> -10255
00> -1296
01> -746
00> -294
01> 2608
00> -8202
01> -8102
00> -11211
01> -14803
00> -7879
01> -10274
00> -1326
01> -768
00> -309
01> 2617
00> -8173
01> -8057
00> -11194
01> -14794
00> -7872
01> -10297
00> -1340
01> -794
00> -322
01> 2631
00> -8132
01> -8000
00> -11106
01> -14725
00> -7816
01> -10240
00> -1419
01> -807
00> -490
01> 2549
00> -8166
01> -8069
00> -11036
01> -14732
00> -7767
01> -10215
00> -1428
01> -809
00> -493
01> 2540
00> -8096
01> -7956
00> -10952
01> -14552
00> -7721
01> -10082
00> -1473
01> -821
00> -543
01> 2449
00> -8006
01> -7914
00> -10807
01> -14426
00> -7644
01> -10037
00> -1514
01> -932
00> -603
01> 2297
00> -7947
01> -7874
00> -10687
01> -14259
00> -7585
01> -9919
00> -1586
01> -996
00> -715
01> 2108
00> -7893
01> -7864
00> -10548
01> -14129
00> -7502
01> -9868
00> -1617
01> -1085
00> -774
01> 1992
00> -7870
01> -7836
00> -10542
01> -14079
00> -7544
01> -9904
00> -1666
01> -1196
00> -739
01> 1923
00> -7813
01> -7808
00> -10515
01> -13996
00> -7521
01> -9826
00> -1691
01> -1191
00> -764
01> 1875
00> -7785
01> -7796
00> -10489
01> -13949
00> -7526
01> -9831
00> -1725
01> -1302
00> -774
01> 1784
00> -7727
01> -7791
00> -10394
01> -13892
00> -7466
01> -9775
00> -1737
01> -1280
00> -775
01> 1787
00> -7688
01> -7762
00> -10421
01> -13924
00> -7572
01> -9889
00> -1806
01> -1364
00> -654
01> 1870
00> -7537
01> -7649
00> -10396
01> -13904
00> -7572
01> -9889
00> -1757
01> -1308
00> -527
01> 2004
00> -7504
01> -7607
00> -10372
01> -13879
00> -6971
01> -9209
00> -1479
01> -700
00> -721
01> 1467
00> -6827
01> -7191
00> -11048
01> -14781
00> -8164
01> -10997
00> -2065
01> -1770
00> -554
01> 2038
00> -7516
01> -7451
00> -10411
01> -13734
00> -7594
01> -9736
00> -1729
01> -1211
00> -335
01> 2208
00> -7390
01> -7452
00> -10433
01> -13885
00> -7632
01> -9913
00> -1737
01> -1331
00> -295
01> 2172
00> -7361
01> -7472
00> -10459
01> -13959
00> -7662
01> -9975
00> -1754
01> -1316
00> -287
01> 2284
00> -7330
01> -7371
00> -10427
01> -13970
00> -7622
01> -10034
00> -1711
01> -1306
00> -237
01> 2497
00> -7268
01> -7212
00> -10387
01> -14027
00> -7581
01> -10103
00> -1684
01> -1281
00> -185
01> 2598
00> -7178
01> -7037
00> -10301
01> -13857
00> -7486
01> -9936
00> -1624
01> -1155
00> -185
01> 2641
00> -7154
01> -6938
00> -10244
01> -13710
00> -7458
01> -9842
00> -1600
01> -1099
00> -137
01> 2730
00> -7091
01> -6819
00> -10198
01> -13676
00> -7419
01> -9853
00> -1598
01> -1091
00> -131
01> 2826
00> -7046
01> -6717
00> -10165
01> -13663
00> -7402
01> -9847
00> -1612
01> -1051
00> -147
01> 2924
00> -7031
01> -6639
00> -10141
01> -13647
00> -7426
01> -9896
00> -1634
01> -1084
00> -116
01> 2969
00> -6991
01> -6591
00> -10119
01> -13604
00> -7405
01> -9824
00> -1608
01> -1009
00> -19
01> 3093
00> -6932
01> -6511
00> -10152
01> -13643
00> -7438
01> -9887
00> -1608
01> -1022
00> 9
01> 3152
00> -6901
01> -6455
00> -10136
01> -13644
00> -7415
01> -9882
00> -1589
01> -974
00> 59
01> 3278
00> -6874
01> -6404
00> -10171
01> -13726
00> -7472
01> -9977
00> -1636
01> -1001
00> 53
01> 3372
00> -6858
01> -6309
00> -10171
01> -13714
00> -7489
01> -9994
00> -1665
01> -986
00> 30
01> 3454
00> -6850
01> -6254
00> -10158
01> -13721
00> -7497
01> -10016
00> -1685
01> -957
00> 34
01> 3571
00> -6827
01> -6152
00> -10145
01> -13686
00> -7507
01> -9994
00> -1711
01> -917
00> 36
01> 3663
00> -6792
01> -6064
00> -10142
01> -13673
00> -7534
01> -10011
00> -1766
01> -935
00> -32
01> 3659
00> -6863
01> -6101
00> -10154
01> -13702
00> -7250
01> -9680
00> -1611
01> -484
00> -281
01> 3319
00> -6844
01> -6263
00> -10332
01> -13969
00> -7604
01> -10125
00> -1869
01> -800
00> -233
01> 3661
00> -6677
01> -5608
00> -10665
01> -13945
00> -8212
01> -10528
00> -2627
01> -1111
00> -990
01> 3764
00> -7606
01> -6079
00> -10559
01> -13851
00> -7707
01> -10152
00> -1697
01> -965
00> 371
01> 3976
00> -6379
01> -5949
00> -9700
01> -13928
00> -7122
01> -10302
00> -1362
01> -1058
00> 521
01> 3959
00> -6379
01> -5919
00> -9831
01> -13857
00> -7285
01> -10161
00> -1546
01> -986
00> 359
01> 3828
00> -6519
01> -5974
00> -10009
01> -13756
00> -7459
01> -10094
00> -1653
01> -1010
00> 318
01> 3724
00> -6560
01> -5960
00> -10069
01> -13656
00> -7509
01> -10009
00> -1707
01> -1011
00> 509
01> 3902
00> -5521
01> -4574
00> -10395
01> -13811

01> -11082
00> -2077
01> -1529
00> -15
01> 3349
00> -6445
01> -5636
00> -10254
01> -13526
00> -7515
01> -9907
00> -1670
01> -746
00> 119
01> 3435
00> -6502
01> -5856
00> -10256
01> -13586
00> -7728
01> -10066
00> -1849
01> -1086
00> 349
01> 3769
00> -6584
01> -5766
00> -10206
01> -13462
00> -7701
01> -9947
00> -1862
01> -1101
00> 308
01> 3659
00> -6596
01> -5802
00> -10222
01> -13469
00> -7706
01> -9962
00> -1853
01> -1101
00> 313
01> 3625
00> -6599
01> -5812
00> -10262
01> -13495
00> -7717
01> -9976
00> -1859
01> -1118
00> 313
01> 3624
00> -6585
01> -5785
00> -10275
01> -13496
00> -7753
01> -10014
00> -1899
01> -1167
00> 309
01> 3592
00> -6522
01> -5727
00> -10250
01> -13461
00> -7761
01> -10017
00> -1936
01> -1217
00> 282
01> 3547
00> -6519
01> -5702
00> -10272
01> -13452
00> -7785
01> -10044
00> -1966
01> -1247
00> 283
01> 3529
00> -6491
01> -5690
00> -10249
01> -13438
00> -7772
01> -10052
00> -1991
01> -1290
00> 247
01> 3499
00> -6466
01> -5668
00> -10229
01> -13431
00> -7784
01> -10093
00> -2020
01> -1358
00> 254
01> 3438
00> -6456
01> -5679
00> -10244
01> -13448
00> -7827
01> -10128
00> -2066
01> -1423
00> 266
01> 3426
00> -6449
01> -5675
00> -10278
01> -13496
00> -7887
01> -10229
00> -2149
01> -1557
00> 214
01> 3321
00> -6425
01> -5699
00> -10281
01> -13521
00> -7910
01> -10289
00> -2197
01> -1649
00> 157
01> 3190
00> -6472
01> -5793
00> -10309
01> -13562
00> -7946
01> -10319
00> -2248
01> -1740
00> 158
01> 3121
00> -6444
01> -5777
00> -10299
01> -13525
00> -7936
01> -10331
00> -2278
01> -1831
00> 123
01> 2988
00> -6430
01> -5833
00> -10284
01> -13551
00> -7974
01> -10413
00> -2329
01> -1964
00> 118
01> 2859
00> -6387
01> -5837
00> -10251
01> -13484
00> -7962
01> -10372
00> -2339
01> -2004
00> 135
01> 2786
00> -6299
01> -5796
00> -10191
01> -13429
00> -7956
01> -10451
00> -2448
01> -2294
00> -34
01> 2341
00> -6426
01> -6156
00> -10334
01> -13714
00> -8168
01> -10795
00> -2712
01> -2772
00> -261
01> 1784
00> -6554
01> -6533
00> -10381
01> -13858
00> -8172
01> -10902
00> -2737
01> -2959
00> -273
01> 1569
00> -6442
01> -6496
00> -10194
01> -13579
00> -7975
01> -10592
00> -2571
01> -2727
00> -78
01> 1755
00> -6182
01> -6154
00> -9943
01> -13136
00> -7774
01> -10219
00> -2423
01> -2517
00> 89
01> 1876
00> -5947
01> -5874
00> -9716
01> -12759
00> -7590
01> -9919
00> -2279
01> -2362
00> 253
01> 1977
00> -5761
01> -5652
00> -9549
01> -12434
00> -7433
01> -9637
00> -2143
01> -2176
00> 418
01> 2112
00> -5580
01> -5402
00> -9394
01> -12099
00> -7262
01> -9286
00> -1937
01> -1827
00> 683
01> 2503
00> -5319
01> -4952
00> -9182
01> -11672
00> -7089
01> -8939
00> -1772
01> -1552
00> 876
01> 2766
00> -5186
01> -4708
00> -9122
01> -11476
00> -7029
01> -8763
00> -1693
01> -1389
00> 996
01> 2934
00> -5191
01> -4632
00> -9266
01> -11575
00> -7222
01> -8958
00> -1834
01> -1589
00> 949
01> 2740
00> -5316
01> -4836
00> -9515
01> -11802
00> -7458
01> -9191
00> -1901
01> -1799
00> 1052
01> 2546
00> -5406
01> -5036
00> -9802
01> -12049
00> -7696
01> -9427
00> -2119
01> -1996
00> 826
01> 2412
00> -5556
01> -5112
00> -9911
01> -12127
00> -7802
01> -9518
00> -2224
01> -2132
00> 882
01> 2297
00> -4911
01> -4561
00> -10382
01> -12600
00> -8466
01> -10492
00> -2616
01> -2811
00> 676
01> 1854
00> -5834
01> -5474
00> -10324
01> -12338
00> -8141
01> -9706
00> -2477
01> -2454
00> 679
01> 1865
00> -5496
01> -5293
00> -10329
01> -12502
00> -8324
01> -10145
00> -2636
01> -2739
00> 457
01> 1619
00> -5927
01> -5724
00> -10329
01> -12584
00> -8209
01> -9988
00> -2670
01> -2732
00> 381
01> 1701
00> -5926
01> -5701
00> -10238
01> -12722
00> -8214
01> -10217
00> -2775
01> -2917
00> 254
01> 1641
00> -5906
01> -5709
00> -10167
01> -12777
00> -8186
01> -10286
00> -2814
01> -2967
00> 205
01> 1650
00> -5919
01> -5728
00> -10167
01> -12873
00> -8189
01> -10387
00> -2804
01> -3004
00> 234
01> 1691
00> -5896
01> -5702
00> -10206
01> -12939
00> -8234
01> -10476
00> -2844
01> -3042
00> 186
01> 1713
00> -5926
01> -5707
00> -10231
01> -13040
00> -8277
01> -10576
00> -2880
01> -3094
00> 183
01> 1731
00> -5909
01> -5676
00> -10276
01> -13075
00> -8324
01> -10632
00> -2939
01> -3140
00> 139
01> 1725
00> -5894
01> -5619
00> -10239
01> -13044
00> -8294
01> -10617
00> -2899
01> -3101
00> 216
01> 1799
00> -5837
01> -5564
00> -10237
01> -13028
00> -8300
01> -10604
00> -2879
01> -3080
00> 274
01> 1835
00> -5787
01> -5477
00> -10228
01> -12961
00> -8285
01> -10563
00> -2877
01> -3047
00> 263
01> 1903
00> -5785
01> -5393
00> -10236
01> -12946
00> -8344
01> -10631
00> -2989
01> -3144
00> 145
01> 1821
00> -5848
01> -5452
00> -10283
01> -13012
00> -8389
01> -10690
00> -3019
01> -3186
00> 186
01> 1824
00> -5797
01> -5421
00> -10262
01> -12969
00> -8376
01> -10642
00> -2981
01> -3131
00> 331
01> 1941
00> -5415
01> -4963
00> -10271
01> -12751
00> -8414
01> -10642
00> -2832
01> -2936
00> 209
01> 1726
00> -5696
01> -5374
00> -10361
01> -12911
00> -8392
01> -10536
00> -2881
01> -2939
00> 349
01> 1951
00> -5269
01> -4854
00> -10313
01> -12822
00> -8589
01> -10899
00> -3044
01> -3229
00> 349
01> 1938
00> -5690
01> -5196
00> -10282
01> -12781
00> -8392
01> -10485
00> -2978
01> -3074
00> 458
01> 2067
00> -5607
01> -5124
00> -10253
01> -12799
00> -8390
01> -10559
00> -2969
01> -3122
00> 465
01> 2061
00> -5568
01> -5066
00> -10257
01> -12794
00> -8441
01> -10618
00> -3030
01> -3168
00> 466
01> 2066
00> -5534
01> -5039
00> -10239
01> -12773
00> -8399
01> -10584
00> -2990
01> -3128
00> 523
01> 2124
00> -5452
01> -4959
00> -10211
01> -12815
00> -8415
01> -10663
00> -3004
01> -3147
00> 506
01> 2196
00> -5426
01> -4876
00> -10182
01> -12782
00> -8387
01> -10640
00> -3007
01> -3146
00> 602
01> 2328
00> -4881
01> -4235
00> -10002
01> -12430
00> -8539
01> -10914
00> -2994
01> -3129
00> 482
01> 2273
00> -5290
01> -4605
00> -10025
01> -12479
00> -8228
01> -10325
00> -2866
01> -2823
00> 797
01> 2720
00> -5079
01> -4278
00> -9899
01> -12338
00> -8178
01> -10301
00> -2836
01> -2817
00> 812
01> 2704
00> -4816
01> -4008
00> -9891
01> -12228
00> -8290
01> -10489
00> -2854
01> -2835
00> 705
01> 2633
00> -5117
01> -4305
00> -9934
01> -12315
00> -8166
01> -10211
00> -2841
01> -2747
00> 818
01> 2793
00> -5066
01> -4176
00> -9915
01> -12281
00> -8101
01> -10161
00> -2706
01> -2564
00> 699
01> 2682
00> -4996
01> -4159
00> -9931
01> -12298
00> -8234
01> -10329
00> -2920
01> -2836
00> 778
01> 2804
00> -4991
01> -4044
00> -9864
01> -12209
00> -8188
01> -10286
00> -2912
01> -2846
00> 755
01> 2777
00> -5041
01> -4109
00> -9887
01> -12280
00> -8208
01> -10342
00> -2945
01> -2907
00> 714
01> 2727
00> -5047
01> -4114
00> -9923
01> -12322
00> -8269
01> -10445
00> -3028
01> -3022
00> 656
01> 2602
00> -5083
01> -4202
00> -9959
01> -12432
00> -8320
01> -10572
00> -3064
01> -3123
00> 607
01> 2532
00> -5078
01> -4218
00> -9977
01> -12474
00> -8379
01> -10647
00> -3134
01> -3219
00> 555
01> 2447
00> -5096
01> -4269
00> -10030
01> -12561
00> -8418
01> -10747
00> -3159
01> -3298
00> 566
01> 2408
00> -5082
01> -4283
00> -10031
01> -12571
00> -8430
01> -10777
00> -3195
01> -3346
00> 530
01> 2391
00> -5078
01> -4269
00> -10042
01> -12582
00> -8442
01> -10808
00> -3214
01> -3387
00> 539
01> 2348
00> -5064
01> -4284
00> -10024
01> -12607
00> -8451
01> -10864
00> -3251
01> -3450
00> 511
01> 2321
00> -5050
01> -4274
00> -10020
01> -12624
00> -8477
01> -10897
00> -3292
01> -3489
00> 481
01> 2302
00> -5044
01> -4251
00> -10037
01> -12621
00> -8502
01> -10920
00> -3323
01> -3529
00> 469
01> 2285
00> -5034
01> -4229
00> -10006
01> -12598
00> -8464
01> -10915
00> -3332
01> -3551
00> 449
01> 2268
00> -5025
01> -4212
00> -10012
01> -12597
00> -8479
01> -10936
00> -3366
01> -3566
00> 441
01> 2263
00> -4997
01> -4174
00> -9999
01> -12563
00> -8501
01> -10931
00> -3376
01> -3593
00> 434
01> 2278
00> -4964
01> -4109
00> -9969
01> -12521
00> -8488
01> -10922
00> -3379
01> -3604
00> 454
01> 2281
00> -4936
01> -4079
00> -9966
01> -12498
00> -8500
01> -10921
00> -3402
01> -3619
00> 455
01> 2289
00> -4916
01> -4039
00> -9928
01> -12481
00> -8470
01> -10919
00> -3407
01> -3626
00> 433
01> 2286
00> -4919
01> -4022
00> -9913
01> -12469
00> -8457
01> -10927
00> -3403
01> -3628
00> 416
01> 2313
00> -4893
01> -3983
00> -9926
01> -12469
00> -8506
01> -10961
00> -3451
01> -3669
00> 412
01> 2303
00> -4871
01> -3933
00> -9905
01> -12453
00> -8486
01> -10946
00> -3452
01> -3649
00> 414
01> 2354
00> -4849
01> -3878
00> -9881
01> -12444
00> -8478
01> -10989
00> -3469
01> -3696
00> 394
01> 2356
00> -4841
01> -3864
00> -9884
01> -12463
00> -8509
01> -11006
00> -3496
01> -3695
00> 387
01> 2403
00> -4812
01> -3787
00> -9852
01> -12439
00> -8491
01> -11022
00> -3511
01> -3718
00> 405
01> 2399
00> -4788
01> -3764
00> -9867
01> -12461
00> -8497
01> -11057
00> -3528
01> -3737
00> 395
01> 2426
00> -4795
01> -3690
00> -9844
01> -12412
00> -8485
01> -11066
00> -3532
01> -3761
00> 388
01> 2445
00> -4762
01> -3672
00> -9831
01> -12456
00> -8517
01> -11120
00> -3582
01> -3795
00> 336
01> 2496
00> -4731
01> -3575
00> -9821
01> -12443
00> -8533
01> -11143
00> -3575
01> -3786
00> 359
01> 2519
00> -4723
01> -3557
00> -9837
01> -12495
00> -8536
01> -11220
00> -3607
01> -3835
00> 370
01> 2626
00> -4693
01> -3409
00> -9839
01> -12453
00> -8577
01> -11289
00> -3666
01> -3883
00> 316
01> 2633
00> -4703
01> -3357
00> -9807
01> -12498
00> -8584
01> -11338
00> -3667
01> -3914
00> 357
01> 2633
00> -4652
01> -3359
00> -9797
01> -12472
00> -8594
01> -11330
00> -3777
01> -3922
00> 296
01> 2689
00> -4617
01> -3249
00> -9823
01> -12505
00> -8660
01> -11391
00> -3722
01> -3941
00> 318
01> 2761
00> -4677
01> -3204
00> -9853
01> -12485
00> -8648
01> -11412
00> -3779
01> -3969
00> 256
01> 2723
00> -4744
01> -3207
00> -9874
01> -12515
00> -8649
01> -11426
00> -3802
01> -3989
00> 351
01> 2756
00> -4680
01> -3068
00> -9922
01> -12465
00> -8761
01> -11542
00> -3854
01> -4018
00> 271
01> 2867
00> -4689
01> -3030
00> -9922
01> -12484
00> -8819
01> -11441
00> -3878
01> -4007
00> 404
01> 2764
00> -4614
01> -3019
00> -9977
01> -12448

01> -11527
00> -3897
01> -3982
00> 317
01> 2929
00> -4496
01> -2959
00> -9841
01> -12526
00> -8718
01> -11568
00> -3839
01> -3935
00> 481
01> 3063
00> -3697
01> -1843
00> -9781
01> -11982
00> -9242
01> -12391
00> -4144
01> -4509
00> 240
01> 3016
00> -4507
01> -2543
00> -9739
01> -12280
00> -8591
01> -11412
00> -3672
01> -3787
00> 550
01> 3373
00> -4411
01> -2476
00> -9634
01> -12363
00> -8596
01> -11528
00> -3742
01> -3971
00> 606
01> 3364
00> -4326
01> -2351
00> -9826
01> -12274
00> -8719
01> -11492
00> -3794
01> -4005
00> 476
01> 3138
00> -4460
01> -2471
00> -9710
01> -12281
00> -8553
01> -11549
00> -3778
01> -4089
00> 428
01> 3207
00> -4297
01> -2452
00> -9741
01> -12276
00> -8769
01> -11616
00> -3913
01> -4231
00> 406
01> 3044
00> -4294
01> -2483
00> -9727
01> -12382
00> -8739
01> -11744
00> -3895
01> -4259
00> 389
01> 2900
00> -4089
01> -2321
00> -9667
01> -12221
00> -8564
01> -11584
00> -3503
01> -3572
00> -177
01> 2206
00> -4295
01> -3067
00> -9766
01> -12506
00> -8856
01> -12014
00> -3697
01> -3876
00> 33
01> 2622
00> -4162
01> -2671
00> -9759
01> -12408
00> -8985
01> -12132
00> -4243
01> -4649
00> 245
01> 2763
00> -4208
01> -2456
00> -9692
01> -12363
00> -8899
01> -11948
00> -4285
01> -4697
00> 206
01> 2673
00> -4230
01> -2571
00> -9759
01> -12582
00> -8998
01> -12178
00> -4342
01> -4791
00> 232
01> 2766
00> -4165
01> -2446
00> -9751
01> -12599
00> -8984
01> -12191
00> -4272
01> -4676
00> 359
01> 3029
00> -4086
01> -2221
00> -9727
01> -12552
00> -8939
01> -12181
00> -4181
01> -4564
00> 472
01> 3258
00> -4022
01> -2051
00> -9762
01> -12561
00> -9031
01> -12257
00> -4244
01> -4573
00> 428
01> 3304
00> -4073
01> -2008
00> -9878
01> -12620
00> -9146
01> -12341
00> -4311
01> -4594
00> 359
01> 3340
00> -4133
01> -1966
00> -9907
01> -12633
00> -9186
01> -12397
00> -4361
01> -4651
00> 316
01> 3334
00> -4127
01> -1905
00> -9929
01> -12634
00> -9242
01> -12464
00> -4453
01> -4717
00> 242
01> 3331
00> -4152
01> -1861
00> -9916
01> -12641
00> -9201
01> -12496
00> -4444
01> -4748
00> 271
01> 3378
00> -4074
01> -1772
00> -9850
01> -12640
00> -9203
01> -12569
00> -4481
01> -4859
00> 249
01> 3337
00> -4071
01> -1737
00> -9862
01> -12649
00> -9174
01> -12611
00> -4403
01> -4847
00> 386
01> 3454
00> -3907
01> -1584
00> -9750
01> -12611
00> -9145
01> -12652
00> -4457
01> -4935
00> 288
01> 3356
00> -3939
01> -1619
00> -9721
01> -12606
00> -9115
01> -12635
00> -4452
01> -4916
00> 301
01> 3358
00> -3854
01> -1526
00> -9626
01> -12457
00> -9049
01> -12560
00> -4424
01> -4943
00> 298
01> 3274
00> -3837
01> -1552
00> -9604
01> -12403
00> -9036
01> -12479
00> -4444
01> -4902
00> 279
01> 3237
00> -3808
01> -1522
00> -9564
01> -12269
00> -9002
01> -12376
00> -4422
01> -4891
00> 306
01> 3118
00> -3786
01> -1629
00> -9576
01> -12214
00> -9002
01> -12266
00> -4422
01> -4879
00> 293
01> 2986
00> -3745
01> -1701
00> -9496
01> -12113
00> -8941
01> -12107
00> -4431
01> -4801
00> 246
01> 2918
00> -3721
01> -1764
00> -9481
01> -12066
00> -9001
01> -12061
00> -4523
01> -4832
00> 155
01> 2771
00> -3797
01> -1872
00> -9521
01> -12050
00> -9014
01> -11985
00> -4565
01> -4832
00> 66
01> 2653
00> -3875
01> -1969
00> -9589
01> -12071
00> -9086
01> -12029
00> -4641
01> -4918
00> 10
01> 2512
00> -3917
01> -2065
00> -9629
01> -12049
00> -9104
01> -12015
00> -4659
01> -4981
00> -39
01> 2382
00> -3987
01> -2154
00> -9676
01> -12081
00> -9172
01> -12003
00> -4739
01> -4965
00> -8
01> 2388
00> -3756
01> -2067
00> -9498
01> -11967
00> -9087
01> -11997
00> -4689
01> -5029
00> 49
01> 2343
00> -3671
01> -2003
00> -9397
01> -11902
00> -9007
01> -11969
00> -4643
01> -5046
00> 42
01> 2352
00> -3681
01> -1941
00> -9346
01> -11887
00> -8900
01> -11999
00> -4571
01> -5030
00> 145
01> 2494
00> -3571
01> -1690
00> -9233
01> -11710
00> -8896
01> -11898
00> -4526
01> -4882
00> 260
01> 2755
00> -3394
01> -1417
00> -9216
01> -11616
00> -8867
01> -11865
00> -4477
01> -4829
00> 293
01> 2891
00> -3298
01> -1282
00> -9167
01> -11544
00> -8906
01> -11831
00> -4587
01> -4851
00> 201
01> 2821
00> -3464
01> -1334
00> -9304
01> -11568
00> -8955
01> -11869
00> -4627
01> -4934
00> 117
01> 2715
00> -3518
01> -1413
00> -9329
01> -11670
00> -8981
01> -12009
00> -4701
01> -5081
00> -54
01> 2564
00> -3701
01> -1546
00> -9436
01> -11871
00> -9081
01> -12276
00> -4844
01> -5317
00> -143
01> 2456
00> -3710
01> -1569
00> -9463
01> -11977
00> -9157
01> -12462
00> -4837
01> -5361
00> -197
01> 2404
00> -3170
01> -902
00> -9498
01> -11886
00> -9630
01> -13437
00> -5167
01> -6009
00> -417
01> 2148
00> -3789
01> -1575
00> -9538
01> -11993
00> -9245
01> -12604
00> -4911
01> -5472
00> -277
01> 2333
00> -3819
01> -1656
00> -9577
01> -12172
00> -9153
01> -12539
00> -4774
01> -5401
00> -45
01> 2740
00> -3662
01> -924
00> -9412
01> -11545
00> -9036
01> -12285
00> -4823
01> -5476
00> -232
01> 2474
00> -4019
01> -1289
00> -9792
01> -11785
00> -9459
01> -12497
00> -5171
01> -5738
00> 196
01> 2253
00> -3391
01> -1332
00> -9996
01> -11843
00> -9899
01> -12642
00> -5421
01> -5904
00> -204
01> 2042
00> -3967
01> -1491
00> -10475
01> -11964
00> -10205
01> -12789
00> -5644
01> -6058
00> -496
01> 1838
00> -4196
01> -1662
00> -10444
01> -11989
00> -10032
01> -12701
00> -5549
01> -5977
00> -579
01> 1688
00> -4119
01> -1850
00> -10228
01> -11912
00> -9801
01> -12479
00> -5239
01> -5776
00> -281
01> 1829
00> -4046
01> -1819
00> -10040
01> -11886
00> -9492
01> -12411
00> -5050
01> -5673
00> -266
01> 1916
00> -3913
01> -1702
00> -9836
01> -11803
00> -9407
01> -12453
00> -5007
01> -5741
00> -50
01> 2068
00> -3520
01> -1344
00> -9514
01> -11581
00> -9239
01> -12367
00> -4990
01> -5696
00> -134
01> 2043
00> -3457
01> -1414
00> -9331
01> -11629
00> -9119
01> -12379
00> -4969
01> -5723
00> -167
01> 2001
00> -3411
01> -1397
00> -9221
01> -11601
00> -9041
01> -12394
00> -4856
01> -5633
00> -316
01> 1861
00> -2958
01> -869
00> -8829
01> -10841
00> -9596
01> -13304
00> -5272
01> -6533
00> -597
01> 1434
00> -3912
01> -1732
00> -9462
01> -11614
00> -8979
01> -12197
00> -4832
01> -5559
00> -203
01> 2079
00> -3659
01> -1405
00> -9554
01> -11782
00> -9249
01> -12572
00> -5071
01> -5871
00> -214
01> 2065
00> -3620
01> -1310
00> -9658
01> -11882
00> -9361
01> -12751
00> -5014
01> -6005
00> -12
01> 2052
00> -3561
01> -1248
00> -9961
01> -11903
00> -9718
01> -12859
00> -5204
01> -6086
00> 28
01> 2085
00> -3412
01> -1087
00> -9848
01> -11779
00> -9595
01> -12802
00> -5130
01> -6041
00> 68
01> 2139
00> -3356
01> -998
00> -9716
01> -11690
00> -9381
01> -12749
00> -4915
01> -5968
00> 92
01> 2218
00> -3424
01> -867
00> -9698
01> -11550
00> -9372
01> -12650
00> -5017
01> -5914
00> 60
01> 2203
00> -3117
01> -809
00> -9382
01> -11432
00> -9277
01> -12614
00> -4671
01> -5437
00> -122
01> 2121
00> -3213
01> -1116
00> -9359
01> -11530
00> -9222
01> -12600
00> -4892
01> -5750
00> -6
01> 2191
00> -3109
01> -780
00> -9300
01> -11289
00> -9316
01> -12678
00> -4980
01> -5857
00> -126
01> 2067
00> -3268
01> -967
00> -9377
01> -11481
00> -9154
01> -12505
00> -4982
01> -5850
00> -40
01> 2178
00> -3208
01> -807
00> -9313
01> -11388
00> -9166
01> -12508
00> -5063
01> -5954
00> -80
01> 2101
00> -3174
01> -783
00> -9263
01> -11335
00> -9152
01> -12501
00> -5057
01> -5943
00> -59
01> 2119
00> -3121
01> -719
00> -9246
01> -11284
00> -9165
01> -12507
00> -5072
01> -5972
00> -46
01> 2099
00> -3061
01> -677
00> -9225
01> -11231
00> -9189
01> -12512
00> -5093
01> -6002
00> -62
01> 2046
00> -3030
01> -659
00> -9236
01> -11189
00> -9236
01> -12527
00> -5117
01> -6024
00> -50
01> 2019
00> -2982
01> -632
00> -9212
01> -11135
00> -9260
01> -12536
00> -5171
01> -6075
00> -90
01> 1964
00> -2972
01> -626
00> -9201
01> -11101
00> -9244
01> -12496
00> -5135
01> -6023
00> -57
01> 2018
00> -2929
01> -537
00> -9191
01> -11056
00> -9299
01> -12583
00> -5264
01> -6233
00> -215
01> 1744
00> -3097
01> -861
00> -9378
01> -11436
00> -9505
01> -12976
00> -5461
01> -6588
00> -390
01> 1433
00> -3210
01> -1067
00> -9461
01> -11564
00> -9554
01> -13027
00> -5451
01> -6532
00> -317
01> 1617
00> -3087
01> -779
00> -9288
01> -11239
00> -9341
01> -12696
00> -5236
01> -6191
00> -98
01> 2002
00> -2856
01> -356
00> -9087
01> -10879
00> -9140
01> -12374
00> -5025
01> -5862
00> 141
01> 2384
00> -2624
01> 83
00> -8920
01> -10505
00> -9026
01> -12108
00> -4932
01> -5668
00> 245
01> 2541
00> -2550
01> 161
00> -8971
01> -10620
00> -9145
01> -12329
00> -5032
01> -5854
00> 238
01> 2461
00> -2501
01> 186
00> -8987
01> -10608
00> -9188
01> -12384
00> -5017
01> -5910
00> 335
01> 2488
00> -2443
01> 264
00> -9039
01> -10587
00> -9284
01> -12402
00> -5147
01> -5963
00> 234
01> 2407
00> -2414
01> 248
00> -8998
01> -10589
00> -9293
01> -12447
00> -5194
01> -6023
00> 176
01> 2349
00> -2450
01> 251
00> -9036
01> -10576
00> -9329
01> -12501
00> -5214
01> -6102
00> 218
01> 2344
00> -2352
01> 361
00> -9023
01> -10529
00> -9411
01> -12579
00> -5322
01> -6221
00> 181
01> 2305
00> -2321
01> 416
00> -9002
01> -10500
00> -9415
01> -12584
00> -5323
01> -6222
00> 209
01> 2343
00> -2245
01> 495
00> -8932
01> -10472
00> -9394
01> -12621
00> -5354
01> -6266
00> 144
01> 2327
00> -2269
01> 516
00> -8952
01> -10518
00> -9437
01> -12730
00> -5434
01> -6378
00> 76
01> 2282
00> -2170
01> 586
00> -8817
01> -10479
00> -9454
01> -12793
00> -5532
01> -6468
00> 8
01> 2235
00> -2171
01> 610
00> -8767
01> -10462
00> -9322
01> -12770
00> -5378
01> -6430
00> 69
01> 2267
00> -2222
01> 631
00> -8842
01> -10456
00> -9396
01> -12797
00> -5466
01> -6496
00> 19
01> 2216
00> -2117
01> 701
00> -8692
01> -10369
00> -9394
01> -12826
00> -5567
01> -6586
00> -55
01> 2134
00> -2119
01> 687
00> -8705
01> -10357
00> -9409
01> -12816
00> -5589
01> -6604
00> -84
01> 2102
00> -2084
01> 718
00> -8667
01> -10284
00> -9389
01> -12754
00> -5595
01> -6581
00> -85
01> 2087
00> -2059
01> 736
00> -8677
01> -10252
00> -9437
01> -12757
00> -5626
01> -6607
00> -64
01> 2059
00> -2008
01> 751
00> -8657
01> -10201
00> -9438
01> -12727
00> -5648
01> -6627
00> -86
01> 2010
00> -2010
01> 723
00> -8669
01> -10212
00> -9467
01> -12753
00> -5674
01> -6646
00> -107
01> 1976
00> -1993
01> 751
00> -8652
01> -10141
00> -9462
01> -12717
00> -5686
01> -6662
00> -134
01> 1905
00> -1985
01> 714
00> -8619
01> -10131
00> -9437
01> -12705
00> -5684
01> -6660
00> -156
01> 1900
00> -2019
01> 715
00> -8627
01> -10131
00> -9455
01> -12721
00> -5718
01> -6700
00> -210
01> 1853
00> -2046
01> 695
00> -8648
01> -10154
00> -9481
01> -12758
00> -5748
01> -6736
00> -231
01> 1818
00> -2029
01> 701
00> -8632
01> -10136
00> -9462
01> -12764
00> -5756
01> -6751
00> -271
01> 1758
00> -2026
01> 670
00> -8605
01> -10094
00> -9491
01> -12732
00> -5789
01> -6769
00> -284
01> 1733
00> -2017
01> 676
00> -8612
01> -10079
00> -9477
01> -12728
00> -5799
01> -6776
00> -306
01> 1719
00> -1985
01> 710
00> -8600
01> -10034
00> -9497
01> -12724
00> -5836
01> -6812
00> -331
01> 1648
00> -1986
01> 682
00> -8563
01> -10005
00> -9462
01> -12679
00> -5832
01> -6787
00> -341
01> 1622
00> -1986
01> 666
00> -8569
01> -10024
00> -9445
01> -12683
00> -5506
01> -6396
00> -386
01> 1718
00> -2033
01> 446
00> -8427
01> -9914
00> -9527
01> -12922
00> -5766
01> -6926
00> -369
01> 1536
00> -2146
01> 604
00> -8711
01> -10079
00> -9334
01> -12599
00> -5648
01> -6712
00> -289
01> 1613
00> -2088
01> 631
00> -8634
01> -10012
00> -9327
01> -12602
00> -5686
01> -6769
00> -324
01> 1559
00> -2109
01> 644
00> -8679
01> -10019
00> -9388
01> -12686
00> -5749
01> -6857
00> -367
01> 1527
00> -2096
01> 646
00> -8657
01> -9998
00> -9406
01> -12683
00> -5764
01> -6854
00> -384
01> 1475
00> -2071
01> 674
00> -8635
01> -9902
00> -9376
01> -12602
00> -5126
01> -6018
00> -645
01> 1480
00> -2417
01> -135
00> -8722
01> -10266
00> -9558
01> -12890
00> -5736
01> -6809
00> -506
01> 1447
00> -2027
01> 717
00> -8394
01> -9526
00> -9602
01> -12887
00> -5883
01> -7047
00> -567
01> 1304
00> -2076
01> 579
00> -8595
01> -9802
00> -9317
01> -12359
00> -5724
01> -6679
00> -361
01> 1486
00> -1914
01> 791
00> -8467
01> -9646
00> -9280
01> -12388
00> -5754
01> -6759
00> -376
01> 1462
00> -1891
01> 873
00> -8431
01> -9526
00> -9349
01> -12278
00> -5752
01> -6705
00> -346
01> 1471
00> -1839
01> 852
00> -8431
01> -9536
00> -9273
01> -12347
00> -5751
01> -6732
00> -420
01> 1440
00> -1922
01> 904
00> -8407
01> -9560
00> -9309
01> -12466
00> -5770
01> -6829
00> -362
01> 1423
00> -1877
01> 915
00> -8419
01> -9527
00> -9365
01> -12491
00> -5799
01> -6908
00> -402
01> 1433
00> -1828
01> 1016
00> -8406
01> -9500
00> -9472
01> -12598
00> -5865
01> -7001
00> -427
01> 1377
00> -1821
01> 993
00> -8423
01> -9489
00> -9437
01> -12617
00> -5884
01> -7021
00> -439
01> 1355
00> -1884
01> 1063
00> -8462
01> -9489
00> -9437
01> -12614
00> -5921
01> -7019
00> -569
01> 1369
00> -1865
01> 1069
00> -8372
01> -9542
00> -9441
01> -12661
00> -6056
01> -7067
00> -469
01> 1301
00> -1761
01> 1078
00> -8444
01> -9464
00> -9499
01> -12723
00> -5974
01> -7068
00> -536
01> 1330
00> -1782
01> 1062
00> -8399
01> -9435
00> -9429
01> -12682
00> -5981
01> -7111
00> -498
01> 1252
00> -1744
01> 1083
00> -8464
01> -9384
00> -9492
01> -12677
00> -5957
01> -7128
00> -586
01> 1284
00> -1825
01> 1118
00> -8357
01> -9436
00> -9471
01> -12681
00> -6002
01> -7192
00> -609
01> 1250
00> -1807
01> 1204
00> -8344
01> -9441
00> -9522
01> -12757
00> -6074
01> -7235
00> -520
01> 1223
00> -1661
01> 1209
00> -8365
01> -9351
00> -9449
01> -12721
00> -6084
01> -7185
00> -555
01> 1293
00> -1667
01> 1281
00> -8261
01> -9329
00> -9492
01> -12717
00> -6023
01> -7220
00> -589
01> 1239
00> -1644
01> 1346
00> -8354
01> -9134
00> -9544
01> -12616
00> -6017
01> -7196
00> -572
01> 1199
00> -1637
01> 1326
00> -8241
01> -9194
00> -9501
01> -12693
00> -6088
01> -7239
00> -590
01> 1191
00> -1643
01> 1306
00> -8296
01> -9165
00> -9515
01> -12682
00> -6068
01> -7252
00> -554
01> 1173
00> -1595
01> 1308
00> -8285
01> -9147
00> -9491
01> -12659
00> -6077
01> -7279
00> -629
01> 1118
00> -1602
01> 1330
00> -8181
01> -9119
00> -9462
01> -12694
00> -6086
01> -7305
00> -622
01> 1116
00> -1554
01> 1372
00> -8222
01> -9091
00> -9520
01> -12718
00> -6121
01> -7351
00> -636
01> 1061
00> -1544
01> 1362
00> -8186
01> -9056
00> -9502
01> -12711
00> -6135
01> -7376
00> -666
01> 1054
00> -1534
01> 1419
00> -8163
01> -8971
00> -9454
01> -12626
00> -6078
01> -7288
00> -622
01> 1119
00> -1467
01> 1488
00> -8093
01> -8946
00> -9431
01> -12677
00> -6044
01> -7328
00> -522
01> 1238
00> -1326
01> 1755
00> -7973
01> -8644
00> -9306
01> -12354
00> -5936
01> -6994
00> -422
01> 1430
00> -1208
01> 1899
00> -7871
01> -8473
00> -9266
01> -12254
00> -5936
01> -6975
00> -446
01> 1453
00> -1207
01> 1941
00> -7879
01> -8489
00> -9291
01> -12316
00> -5954
01> -7025
00> -471
01> 1386
00> -1216
01> 1918
00> -7884
01> -8470
00> -9324
01> -12342
00> -6032
01> -7144
00> -527
01> 1251
00> -1256
01> 1803
00> -7921
01> -8565
00> -9363
01> -12407
00> -6042
01> -7157
00> -552
01> 1273
00> -1251
01> 1873
00> -7942
01> -8553
00> -9432
01> -12492
00> -6116
01> -7294
00> -584
01> 1143
00> -1245
01> 1799
00> -7962
01> -8646
00> -9471
01> -12646
00> -6176
01> -7421
00> -643
01> 1026
00> -1273
01> 1749
00> -7952
01> -8602
00> -9467
01> -12592
00> -6196
01> -7425
00> -680
01> 1028
00> -1273
01> 1758
00> -7966
01> -8699
00> -9515
01> -12741
00> -6231
01> -7514
00> -681
01> 977
00> -1239
01> 1773
00> -7921
01> -8616
00> -9512
01> -12707
00> -6269
01> -7565
00> -739
01> 903
00> -1285
01> 1719
00> -7974
01> -8609
00> -9517
01> -12669
00> -6264
01> -7537
00> -729
01> 890
00> -1253
01> 1741
00> -7979
01> -8596
00> -9570
01> -12713
00> -6361
01> -7611
00> -769
01> 824
00> -1084
01> 1881
00> -7472
01> -7992
00> -9764
01> -12977
00> -6466
01> -8017
00> -935
01> 660
00> -1337
01> 1736
00> -8022
01> -8539
00> -9554
01> -12609
00> -6328
01> -7619
00> -726
01> 826
00> -1159
01> 1913
00> -7922
01> -8390
00> -9558
01> -12635
00> -6342
01> -7647
00> -778
01> 804
00> -1107
01> 1865
00> -7819
01> -8392
00> -9507
01> -12601
00> -6360
01> -7626
00> -792
01> 786
00> -1145
01> 1868
00> -7877
01> -8431
00> -9531
01> -12667
00> -6342
01> -7647
00> -818
01> 791
00> -1149
01> 1929
00> -7842
01> -8337
00> -9551
01> -12614
00> -6360
01> -7651
00> -816
01> 773
00> -1122
01> 1906
00> -7825
01> -8304
00> -9544
01> -12631
00> -6399
01> -7697
00> -856
01> 684
00> -917
01> 2108
00> -7154
01> -7411
00> -9884
01> -13035
00> -6666
01> -8316
00> -1069
01> 402
00> -1219
01> 1756
00> -7881
01> -8327
00> -9559
01> -12617
00> -6434
01> -7734
00> -869
01> 678
00> -1047
01> 2028
00> -7827
01> -8207
00> -9541
01> -12559
00> -6427
01> -7681
00> -890
01> 643
00> -1031
01> 1979
00> -7781
01> -8186
00> -9571
01> -12635
00> -6267
01> -7586
00> -862
01> 699
00> -1012
01> 1840
00> -7419
01> -7843
00> -9802
01> -12923
00> -6562
01> -8028
00> -1029
01> 489
00> -1118
01> 1834
00> -7806
01> -8227
00> -9547
01> -12576
00> -6439
01> -7712
00> -890
01> 619
00> -986
01> 2007
00> -7731
01> -8105
00> -9537
01> -12556
00> -6464
01> -7769
00> -897
01> 546
00> -936
01> 2002
00> -7674
01> -8046
00> -9546
01> -12556
00> -6491
01> -7780
00> -920
01> 569
00> -932
01> 2062
00> -7669
01> -7994
00> -9564
01> -12542
00> -6486
01> -7770
00> -888
01> 596
00> -861
01> 2143
00> -7603
01> -7885
00> -9541
01> -12478
00> -6452
01> -7702
00> -849
01> 671
00> -803
01> 2228
00> -7540
01> -7789
00> -9514
01> -12431
00> -6442
01> -7672
00> -835
01> 709
00> -768
01> 2296
00> -7563
01> -7790
00> -9496
01> -12416
00> -6077
01> -7265
00> -742
01> 994
00> -920
01> 1937
00> -7329
01> -7657
00> -9773
01> -12787
00> -6629
01> -8025
00> -984
01> 528
00> -801
01> 2286
00> -7591
01> -7769
00> -9522
01> -12444
00> -6476
01> -7719
00> -881
01> 654
00> -727
01> 2357
00> -7529
01> -7731
00> -9568
01> -12511
00> -6546
01> -7812
00> -925
01> 595
00> -723
01> 2395
00> -7493
01> -7639
00> -9561
01> -12499
00> -6554
01> -7869
00> -958
01> 534
00> -727
01> 2360
00> -7415
01> -7536
00> -9607
01> -12536
00> -5861
01> -7055
00> -993
01> 771
00> -1242
01> 1351
00> -7667
01> -8221
00> -9756
01> -12845
00> -6639
01> -7999
00> -989
01> 541
00> -679
01> 2535
00> -7435
01> -7461
00> -9586
01> -12491
00> -6604
01> -7928
00> -965
01> 508
00> -671
01> 2462
00> -7488
01> -7599
00> -9617
01> -12587
00> -6622
01> -7966
00> -989
01> 502
00> -652
01> 2495
00> -7439
01> -7511
00> -9607
01> -12519
00> -6624
01> -7930
00> -988
01> 502
00> -612
01> 2518
00> -7403
01> -7489
00> -9604
01> -12551
00> -6620
01> -7943
00> -966
01> 533
00> -557
01> 2604
00> -7317
01> -7334
00> -9542
01> -12434
00> -6556
01> -7859
00> -912
01> 597
00> -494
01> 2688
00> -7244
01> -7194
00> -9498
01> -12311
00> -6531
01> -7771
00> -904
01> 658
00> -470
01> 2759
00> -7207
01> -7147
00> -9507
01> -12337
00> -6568
01> -7844
00> -956
01> 563
00> -489
01> 2683
00> -7223
01> -7200
00> -9532
01> -12399
00> -6606
01> -7913
00> -1002
01> 469
00> -512
01> 2625
00> -7241
01> -7227
00> -9557
01> -12454
00> -6633
01> -7994
00> -1032
01> 376
00> -521
01> 2581
00> -7243
01> -7238
00> -9589
01> -12490
00> -6678
01> -8052
00> -1075
01> 319
00> -521
01> 2562
00> -7239
01> -7238
00> -9596
01> -12519
00> -6686
01> -8091
00> -1085
01> 303
00> -519
01> 2566
00> -7238
01> -7238
00> -9619
01> -12552
00> -6734
01> -8154
00> -1134
01> 214
00> -516
01> 2535
00> -7229
01> -7229
00> -9633
01> -12559
00> -6769
01> -8179
00> -1163
01> 189
00> -519
01> 2549
00> -7233
01> -7207
00> -9652
01> -12594
00> -6777
01> -8227
00> -1164
01> 164
00> -494
01> 2593
00> -7206
01> -7167
00> -9659
01> -12592
00> -6813
01> -8237
00> -1205
01> 163
00> -477
01> 2635
00> -7166
01> -7072
00> -9645
01> -12524
00> -6814
01> -8210
00> -1206
01> 153
00> -484
01> 2608
00> -7182
01> -7095
00> -9653
01> -12568
00> -6809
01> -8242
00> -1193
01> 178
00> -390
01> 2727
00> -7062
01> -6939

01> -12429
00> -6724
01> -8094
00> -1095
01> 326
00> -265
01> 2948
00> -6926
01> -6669
00> -9423
01> -12177
00> -6601
01> -7903
00> -994
01> 500
00> -146
01> 3135
00> -6829
01> -6514
00> -9374
01> -12086
00> -6568
01> -7817
00> -965
01> 583
00> -100
01> 3247
00> -6781
01> -6408
00> -9370
01> -12036
00> -6578
01> -7789
00> -982
01> 607
00> -102
01> 3302
00> -6769
01> -6337
00> -9371
01> -12012
00> -6589
01> -7790
00> -1000
01> 612
00> -69
01> 3376
00> -6612
01> -6101
00> -9360
01> -11969
00> -5902
01> -7021
00> -779
01> 1197
00> -719
01> 2339
00> -6975
01> -6952
00> -9557
01> -12302
00> -6631
01> -7814
00> -984
01> 723
00> 11
01> 3592
00> -6735
01> -6134
00> -9322
01> -11861
00> -6596
01> -7694
00> -1025
01> 653
00> -21
01> 3529
00> -6707
01> -6117
00> -9336
01> -11900
00> -6613
01> -7763
00> -1049
01> 607
00> -22
01> 3525
00> -6679
01> -6083
00> -9347
01> -11913
00> -6641
01> -7792
00> -1069
01> 590
00> -9
01> 3550
00> -6666
01> -6030
00> -9361
01> -11902
00> -6651
01> -7797
00> -1073
01> 599
00> -11
01> 3563
00> -6649
01> -6001
00> -9371
01> -11902
00> -6663
01> -7804
00> -1092
01> 574
00> 8
01> 3583
00> -6598
01> -5918
00> -9363
01> -11877
00> -6686
01> -7840
00> -1124
01> 539
00> 21
01> 3594
00> -6568
01> -5884
00> -9347
01> -11867
00> -6670
01> -7834
00> -1111
01> 536
00> 51
01> 3633
00> -6544
01> -5827
00> -9356
01> -11876
00> -6692
01> -7877
00> -1139
01> 491
00> 58
01> 3621
00> -6521
01> -5811
00> -9342
01> -11867
00> -6682
01> -7877
00> -1121
01> 499
00> 111
01> 3667
00> -6482
01> -5759
00> -9339
01> -11851
00> -6712
01> -7902
00> -1161
01> 458
00> 103
01> 3663
00> -6467
01> -5737
00> -9342
01> -11857
00> -6714
01> -7912
00> -1161
01> 449
00> 127
01> 3697
00> -6444
01> -5688
00> -9331
01> -11836
00> -6717
01> -7917
00> -1169
01> 434
00> 145
01> 3719
00> -6429
01> -5647
00> -9347
01> -11838
00> -6677
01> -7881
00> -1176
01> 454
00> 377
01> 3933
00> -5454
01> -4411
00> -9757
01> -12269
00> -7276
01> -9006
00> -1546
01> -104
00> -34
01> 3566
00> -6318
01> -5364
00> -9399
01> -11757
00> -6564
01> -7726
00> -1126
01> 663
00> -19
01> 3481
00> -6262
01> -5515
00> -9421
01> -11903
00> -6727
01> -7987
00> -1230
01> 422
00> 121
01> 3681
00> -6219
01> -5354
00> -9429
01> -11874
00> -6802
01> -8067
00> -1273
01> 332
00> 153
01> 3737
00> -6393
01> -5542
00> -9316
01> -11776
00> -6776
01> -7965
00> -1261
01> 319
00> 236
01> 3857
00> -6339
01> -5445
00> -9307
01> -11760
00> -6774
01> -7977
00> -1257
01> 305
00> 258
01> 3854
00> -6308
01> -5412
00> -9321
01> -11794
00> -6600
01> -7807
00> -1117
01> 586
00> 84
01> 3570
00> -6178
01> -5409
00> -9434
01> -11949
00> -6694
01> -8012
00> -1227
01> 448
00> 86
01> 3583
00> -5985
01> -5108
00> -9492
01> -11942
00> -6941
01> -8329
00> -1407
01> 144
00> 174
01> 3751
00> -6161
01> -5197
00> -9388
01> -11804
00> -6798
01> -8064
00> -1327
01> 261
00> 213
01> 3780
00> -6152
01> -5202
00> -9367
01> -11802
00> -6905
01> -8186
00> -1381
01> 120
00> 339
01> 3969
00> -6209
01> -5191
00> -9344
01> -11751
00> -6892
01> -8122
00> -1401
01> 117
00> 288
01> 3897
00> -6207
01> -5212
00> -9328
01> -11756
00> -6870
01> -8125
00> -1390
01> 119
00> 302
01> 3903
00> -6191
01> -5192
00> -9342
01> -11771
00> -6890
01> -8155
00> -1404
01> 101
00> 308
01> 3907
00> -6171
01> -5157
00> -9339
01> -11752
00> -6886
01> -8156
00> -1401
01> 91
00> 323
01> 3915
00> -6116
01> -5104
00> -9322
01> -11750
00> -6889
01> -8176
00> -1409
01> 88
00> 354
01> 3941
00> -6070
01> -5049
00> -9332
01> -11750
00> -6919
01> -8212
00> -1441
01> 49
00> 346
01> 3934
00> -6064
01> -5018
00> -9331
01> -11741
00> -6924
01> -8226
00> -1452
01> 23
00> 359
01> 3938
00> -6042
01> -4990
00> -9343
01> -11746
00> -6935
01> -8237
00> -1450
01> 25
00> 394
01> 3984
00> -5996
01> -4924
00> -9311
01> -11711
00> -6929
01> -8242
00> -1469
01> -1
00> 396
01> 4001
00> -5977
01> -4876
00> -9315
01> -11697
00> -6942
01> -8247
00> -1482
01> -2
00> 416
01> 4023
00> -5960
01> -4837
00> -9320
01> -11694
00> -6945
01> -8259
00> -1483
01> -24
00> 409
01> 4015
00> -5956
01> -4829
00> -9324
01> -11710
00> -6968
01> -8304
00> -1521
01> -78
00> 433
01> 4026
00> -5904
01> -4777
00> -9302
01> -11696
00> -6976
01> -8326
00> -1538
01> -108
00> 439
01> 4023
00> -5899
01> -4766
00> -9307
01> -11700
00> -6983
01> -8336
00> -1534
01> -121
00> 480
01> 4050
00> -5856
01> -4718
00> -9296
01> -11693
00> -6996
01> -8375
00> -1560
01> -177
00> 485
01> 4038
00> -5839
01> -4691
00> -9319
01> -11704
00> -7024
01> -8401
00> -1600
01> -214
00> 471
01> 4021
00> -5819
01> -4659
00> -9316
01> -11702
00> -7038
01> -8434
00> -1604
01> -233
00> 499
01> 4044
00> -5789
01> -4621
00> -9304
01> -11686
00> -7034
01> -8424
00> -1597
01> -230
00> 524
01> 4071
00> -5755
01> -4569
00> -9278
01> -11654
00> -7018
01> -8417
00> -1609
01> -254
00> 533
01> 4081
00> -5739
01> -4544
00> -9294
01> -11671
00> -7049
01> -8468
00> -1632
01> -297
00> 544
01> 4078
00> -5717
01> -4511
00> -9289
01> -11659
00> -7062
01> -8465
00> -1654
01> -311
00> 551
01> 4088
00> -5709
01> -4480
00> -9301
01> -11649
00> -7072
01> -8476
00> -1672
01> -326
00> 563
01> 4121
00> -5673
01> -4409
00> -9302
01> -11628
00> -7095
01> -8492
00> -1694
01> -340
00> 564
01> 4141
00> -5657
01> -4351
00> -9291
01> -11590
00> -7089
01> -8479
00> -1707
01> -347
00> 566
01> 4155
00> -5646
01> -4313
00> -9301
01> -11584
00> -7111
01> -8501
00> -1729
01> -377
00> 589
01> 4173
00> -5606
01> -4263
00> -9284
01> -11566
00> -7106
01> -8501
00> -1727
01> -377
00> 603
01> 4183
00> -5590
01> -4236
00> -9293
01> -11564
00> -7134
01> -8526
00> -1755
01> -408
00> 601
01> 4191
00> -5577
01> -4202
00> -9297
01> -11558
00> -7144
01> -8536
00> -1773
01> -424
00> 604
01> 4208
00> -5555
01> -4158
00> -9294
01> -11547
00> -7159
01> -8551
00> -1808
01> -461
00> 606
01> 4208
00> -5524
01> -4109
00> -9291
01> -11539
00> -7179
01> -8579
00> -1826
01> -488
00> 616
01> 4223
00> -5509
01> -4076
00> -9294
01> -11526
00> -7190
01> -8583
00> -1844
01> -504
00> 614
01> 4226
00> -5501
01> -4046
00> -9304
01> -11528
00> -7207
01> -8606
00> -1871
01> -529
00> 609
01> 4229
00> -5492
01> -4015
00> -9302
01> -11509
00> -7225
01> -8624
00> -1897
01> -557
00> 614
01> 4239
00> -5467
01> -3964
00> -9306
01> -11497
00> -7238
01> -8636
00> -1907
01> -573
00> 629
01> 4258
00> -5445
01> -3927
00> -9308
01> -11490
00> -7247
01> -8649
00> -1928
01> -601
00> 643
01> 4263
00> -5424
01> -3896
00> -9327
01> -11509
00> -7254
01> -8670
00> -1920
01> -576
00> 795
01> 4395
00> -4286
01> -2542
00> -9388
01> -11407
00> -7996
01> -10032
00> -2404
01> -1397
00> 364
01> 3968
00> -5483
01> -3809
00> -9316
01> -11347
00> -7256
01> -8558
00> -1976
01> -614
00> 731
01> 4413
00> -5348
01> -3711
00> -9271
01> -11398
00> -7272
01> -8660
00> -1993
01> -685
00> 706
01> 4345
00> -5279
01> -3657
00> -9297
01> -11424
00> -7312
01> -8748
00> -2020
01> -723
00> 678
01> 4289
00> -5152
01> -3515
00> -9336
01> -11442
00> -7291
01> -8781
00> -1927
01> -589
00> 576
01> 4137
00> -5024
01> -3451
00> -9343
01> -11457
00> -7416
01> -9000
00> -2097
01> -839
00> 624
01> 4245
00> -5372
01> -3726
00> -9295
01> -11411
00> -7294
01> -8677
00> -2032
01> -737
00> 771
01> 4407
00> -5241
01> -3566
00> -9267
01> -11368
00> -7336
01> -8734
00> -2094
01> -799
00> 718
01> 4356
00> -5246
01> -3561
00> -9289
01> -11381
00> -7357
01> -8774
00> -2123
01> -851
00> 717
01> 4334
00> -5222
01> -3528
00> -9286
01> -11367
00> -7379
01> -8803
00> -2164
01> -905
00> 738
01> 4374
00> -4861
01> -3071
00> -9282
01> -11272
00> -7501
01> -9097
00> -2182
01> -947
00> 570
01> 4153
00> -5259
01> -3561
00> -9321
01> -11376
00> -7400
01> -8790
00> -2180
01> -896
00> 781
01> 4439
00> -5144
01> -3367
00> -9283
01> -11321
00> -7425
01> -8809
00> -2194
01> -936
00> 738
01> 4345
00> -5093
01> -3349
00> -9293
01> -11354
00> -6920
01> -8327
00> -1909
01> -381
00> 256
01> 3563
00> -5333
01> -4016
00> -9409
01> -11611
00> -7453
01> -8910
00> -2230
01> -963
00> 804
01> 4463
00> -5046
01> -3226
00> -9281
01> -11289
00> -7459
01> -8910
00> -2259
01> -1046
00> 774
01> 4389
00> -5076
01> -3277
00> -9268
01> -11312
00> -7435
01> -8892
00> -2256
01> -1039
00> 776
01> 4376
00> -5051
01> -3252
00> -9282
01> -11320
00> -7477
01> -8930
00> -2306
01> -1069
00> 753
01> 4363
00> -5034
01> -3225
00> -9282
01> -11295
00> -7481
01> -8936
00> -2299
01> -1085
00> 803
01> 4398
00> -4136
01> -2174
00> -9083
01> -10834
00> -7569
01> -9424
00> -2312
01> -1097
00> -9
01> 3265
00> -5344
01> -3908
00> -9407
01> -11476
00> -7482
01> -8861
00> -2283
01> -981
00> 886
01> 4592
00> -4876
01> -2904
00> -9237
01> -11159
00> -7507
01> -8952
00> -2346
01> -1144
00> 806
01> 4438
00> -4952
01> -3037
00> -9272
01> -11234
00> -7528
01> -8977
00> -2390
01> -1177
00> 788
01> 4414
00> -4932
01> -3026
00> -9280
01> -11246
00> -7544
01> -9018
00> -2397
01> -1218
00> 793
01> 4401
00> -4896
01> -2977
00> -9262
01> -11226
00> -7551
01> -9033
00> -2420
01> -1234
00> 774
01> 4377
00> -4765
01> -2829
00> -9273
01> -11190
00> -7112
01> -8602
00> -2046
01> -581
00> 244
01> 3587
00> -5111
01> -3629
00> -9418
01> -11509
00> -7605
01> -9120
00> -2451
01> -1257
00> 845
01> 4511
00> -4845
01> -2815
00> -9255
01> -11157
00> -7571
01> -9017
00> -2471
01> -1286
00> 802
01> 4424
00> -4847
01> -2856
00> -9276
01> -11193
00> -7609
01> -9088
00> -2516
01> -1336
00> 798
01> 4431
00> -4812
01> -2777
00> -9269
01> -11159
00> -7616
01> -9091
00> -2515
01> -1336
00> 805
01> 4438
00> -4781
01> -2746
00> -9272
01> -11156
00> -7626
01> -9122
00> -2531
01> -1374
00> 806
01> 4427
00> -4742
01> -2703
00> -9263
01> -11147
00> -7642
01> -9154
00> -2548
01> -1398
00> 810
01> 4422
00> -4705
01> -2666
00> -9246
01> -11134
00> -7652
01> -9176
00> -2567
01> -1428
00> 801
01> 4420
00> -4702
01> -2622
00> -9278
01> -11126
00> -7687
01> -9184
00> -2595
01> -1451
00> 806
01> 4423
00> -4688
01> -2602
00> -9267
01> -11117
00> -7669
01> -9195
00> -2593
01> -1464
00> 803
01> 4423
00> -4693
01> -2583
00> -9262
01> -11107
00> -7686
01> -9207
00> -2631
01> -1506
00> 808
01> 4414
00> -4646
01> -2534
00> -9267
01> -11099
00> -7666
01> -9198
00> -2559
01> -1389
00> 870
01> 4463
00> -3655
01> -1430
00> -9138
01> -10749
00> -8374
01> -10443
00> -3072
01> -2270
00> 525
01> 4116
00> -4698
01> -2456
00> -9256
01> -10945
00> -7681
01> -9096
00> -2672
01> -1502
00> 908
01> 4567
00> -4559
01> -2329
00> -9224
01> -10989
00> -7702
01> -9216
00> -2697
01> -1596
00> 856
01> 4463
00> -4560
01> -2379
00> -9230
01> -11026
00> -7725
01> -9251
00> -2720
01> -1625
00> 843
01> 4446
00> -4546
01> -2350
00> -9234
01> -11026
00> -7741
01> -9274
00> -2737
01> -1636
00> 846
01> 4453
00> -4519
01> -2306
00> -9237
01> -10999
00> -7754
01> -9284
00> -2758
01> -1660
00> 829
01> 4441
00> -4489
01> -2256
00> -9232
01> -10976
00> -7777
01> -9309
00> -2782
01> -1679
00> 825
01> 4439
00> -4469
01> -2222
00> -9239
01> -10972
00> -7780
01> -9329
00> -2782
01> -1707
00> 838
01> 4432
00> -4451
01> -2197
00> -9237
01> -10965
00> -7807
01> -9353
00> -2817
01> -1738
00> 830
01> 4428
00> -4419
01> -2156
00> -9222
01> -10939
00> -7814
01> -9366
00> -2844
01> -1780
00> 828
01> 4413
00> -4414
01> -2134
00> -9235
01> -10941
00> -7829
01> -9386
00> -2860
01> -1803
00> 839
01> 4424
00> -4374
01> -2088
00> -9229
01> -10932
00> -7842
01> -9416
00> -2887
01> -1844
00> 831
01> 4400
00> -4353
01> -2072
00> -9224
01> -10926
00> -7864
01> -9432
00> -2916
01> -1871
00> 819
01> 4394
00> -4355
01> -2046
00> -9224
01> -10914
00> -7849
01> -9423
00> -2916
01> -1881
00> 843
01> 4410
00> -4316
01> -1996
00> -9214
01> -10896
00> -7867
01> -9445
00> -2934
01> -1909
00> 846
01> 4396
00> -4301
01> -1981
00> -9218
01> -10894
00> -7880
01> -9464
00> -2954
01> -1944
00> 835
01> 4379
00> -4292
01> -1956
00> -9223
01> -10886
00> -7901
01> -9490
00> -2990
01> -1984
00> 834
01> 4366
00> -4262
01> -1921
00> -9227
01> -10886
00> -7925
01> -9531
00> -3009
01> -2021
00> 841
01> 4359
00> -4232
01> -1886
00> -9213
01> -10867
00> -7922
01> -9526
00> -3012
01> -2024
00> 834
01> 4357
00> -4214
01> -1860
00> -9217
01> -10869
00> -7954
01> -9574
00> -3056
01> -2094
00> 820
01> 4325
00> -4201
01> -1837
00> -9215
01> -10845
00> -7956
01> -9573
00> -3076
01> -2112
00> 821
01> 4329
00> -4193
01> -1811
00> -9224
01> -10846
00> -7984
01> -9599
00> -3108
01> -2139
00> 829
01> 4331
00> -4141
01> -1760
00> -9206
01> -10821
00> -7983
01> -9619
00> -3123
01> -2186
00> 814
01> 4303
00> -4161
01> -1746
00> -9222
01> -10821
00> -8002
01> -9639
00> -3142
01> -2212
00> 813
01> 4302
00> -4147
01> -1726
00> -9243
01> -10828
00> -8052
01> -9679
00> -3231
01> -2312
00> 841
01> 4319
00> -3590
01> -1077
00> -9027
01> -10395
00> -8374
01> -10251
00> -3343
01> -2539
00> 559
01> 4020
00> -4187
01> -1753
00> -9262
01> -10778
00> -8054
01> -9622
00> -3266
01> -2296
00> 846
01> 4377
00> -4046
01> -1517
00> -9201
01> -10721
00> -8065
01> -9669
00> -3274
01> -2337
00> 815
01> 4324
00> -4070
01> -1558
00> -9215
01> -10747
00> -8059
01> -9661
00> -3274
01> -2336
00> 810
01> 4306
00> -4042
01> -1525
00> -9224
01> -10738
00> -8094
01> -9706
00> -3287
01> -2370
00> 828
01> 4306
00> -3994
01> -1477
00> -9199
01> -10712
00> -8098
01> -9726
00> -3320
01> -2398
00> 799
01> 4286
00> -3974
01> -1454
00> -9171
01> -10681
00> -8076
01> -9713
00> -3295
01> -2385
00> 829
01> 4288
00> -3379
01> -811
00> -8829
01> -10079
00> -8124
01> -10011
00> -2844
01> -1860
00> 18
01> 3326
00> -4387
01> -2422
00> -9379
01> -11057
00> -8124
01> -9737
00> -3310
01> -2331
00> 921
01> 4484
00> -3810
01> -1149
00> -9113
01> -10527
00> -8093
01> -9722
00> -3359
01> -2470
00> 861
01> 4336
00> -3870
01> -1272
00> -9146
01> -10602
00> -8092
01> -9727
00> -3359
01> -2473
00> 854
01> 4326
00> -3837
01> -1242
00> -9132
01> -10591
00> -8116
01> -9769
00> -3396
01> -2530
00> 846
01> 4302
00> -3811
01> -1210
00> -9142
01> -10590
00> -8143
01> -9801
00> -3418
01> -2564
00> 829
01> 4274
00> -3796
01> -1186
00> -9133
01> -10566
00> -8150
01> -9817
00> -3427
01> -2576
00> 823
01> 4263
00> -3777
01> -1160
00> -9127
01> -10550
00> -8161
01> -9830
00> -3439
01> -2587
00> 818
01> 4268
00> -3737
01> -1088
00> -9114
01> -10503
00> -8171
01> -9830
00> -3456
01> -2597
00> 821
01> 4275
00> -3710
01> -1048
00> -9109
01> -10486
00> -8179
01> -9844
00> -3478
01> -2619
00> 808
01> 4275
00> -3689
01> -1003
00> -9091
01> -10456
00> -8191
01> -9862
00> -3504
01> -2661
00> 808
01> 4261
00> -3679
01> -982
00> -9102
01> -10447
00> -8204
01> -9864
00> -3519
01> -2678
00> 811
01> 4262
00> -3661
01> -951
00> -9102
01> -10431
00> -8208
01> -9866
00> -3537
01> -2697
00> 812
01> 4257
00> -3641
01> -916
00> -9108
01> -10421
00> -8236
01> -9885
00> -3569
01> -2716
00> 811
01> 4263
00> -3590
01> -860
00> -9069
01> -10380
00> -8217
01> -9889
00> -3574
01> -2754
00> 809
01> 4246
00> -3576
01> -832
00> -9076
01> -10383
00> -8240
01> -9928
00> -3594
01> -2795
00> 803
01> 4216
00> -3571
01> -832
00> -9084
01> -10392
00> -8263
01> -9954
00> -3619
01> -2824
00> 796
01> 4203
00> -3556
01> -807
00> -9094
01> -10388
00> -8308
01> -10008
00> -3686
01> -2901
00> 764
01> 4170
00> -3532
01> -771
00> -9074
01> -10357
00> -8292
01> -9984
00> -3690
01> -2896
00> 755
01> 4166
00> -3536
01> -753
00> -9103
01> -10367
00> -8325
01> -10022
00> -3702
01> -2920
00> 760
01> 4172
00> -3487
01> -696
00> -9062
01> -10329
00> -8301
01> -10015
00> -3693
01> -2936
00> 766
01> 4163
00> -3488
01> -678
00> -9076
01> -10322
00> -8322
01> -10037
00> -3731
01> -2966
00> 769
01> 4171
00> -3447
01> -620
00> -9054
01> -10286
00> -8324
01> -10041
00> -3746
01> -2986
00> 763
01> 4154
00> -3422
01> -597
00> -9039
01> -10266
00> -8328
01> -10046
00> -3767
01> -3024
00> 755
01> 4136
00> -3408
01> -573
00> -9044
01> -10264
00> -8352
01> -10073
00> -3784
01> -3039
00> 769
01> 4153
00> -3363
01> -509
00> -9023
01> -10218
00> -8341
01> -10066
00> -3784
01> -3054
00> 779
01> 4149
00> -3328
01> -467
00> -9011
01> -10204
00> -8361
01> -10089
00> -3826
01> -3099
00> 748
01> 4116
00> -3327
01> -454
00> -9024
01> -10196
00> -8386
01> -10106
00> -3852
01> -3121
00> 735
01> 4110
00> -3326
01> -429
00> -9027
01> -10179
00> -8398
01> -10127
00> -3870
01> -3157
00> 723
01> 4088
00> -3317
01> -404
00> -9031
01> -10171
00> -8412
01> -10143
00> -3899
01> -3189
00> 721
01> 4084
00> -3276
01> -355
00> -9003
01> -10134
00> -8405
01> -10132
00> -3907
01> -3186
00> 725
01> 4102
00> -3251
01> -301
00> -8996
01> -10103
00> -8419
01> -10139
00> -3927
01> -3219
00> 714
01> 4082
00> -3238
01> -281
00> -8994
01> -10094
00> -8421
01> -10157
00> -3934
01> -3239
00> 714
01> 4079
00> -3214
01> -246
00> -8992
01> -10077
00> -8439
01> -10168
00> -3965
01> -3264
00> 710
01> 4079
00> -3189
01> -194
00> -8971
01> -10029
00> -8431
01> -10142
00> -3977
01> -3272
00> 715
01> 4079
00> -3161
01> -155
00> -8959
01> -10015
00> -8439
01> -10167
00> -3987
01> -3303
00> 733
01> 4083
00> -3119
01> -109
00> -8939
01> -9983
00> -8427
01> -10164
00> -3991
01> -3309
00> 719
01> 4073
00> -3110
01> -87
00> -8942
01> -9974
00> -8446
01> -10184
00> -4012
01> -3337
00> 726
01> 4068
00> -3064
01> -30
00> -8916
01> -9922
00> -8454
01> -10184
00> -4031
01> -3352
00> 723
01> 4061
00> -3036
01> 8
00> -8904
01> -9903
00> -8451
01> -10191
00> -4029
01> -3364
00> 731
01> 4070
00> -2993
01> 70
00> -8873
01> -9853
00> -8443
01> -10184
00> -4041
01> -3375
00> 738
01> 4084
00> -2957
01> 129
00> -8860
01> -9814
00> -8451
01> -10189
00> -4058
01> -3409
00> 730
01> 4054
00> -2934
01> 144
00> -8840
01> -9799
00> -8454
01> -10202
00> -4076
01> -3434
00> 723
01> 4045
00> -2924
01> 171
00> -8845
01> -9786
00> -8452
01> -10196
00> -4072
01> -3432
00> 740
01> 4064
00> -2881
01> 236
00> -8833
01> -9755
00> -8488
01> -10219
00> -4129
01> -3481
00> 714
01> 4035
00> -2869
01> 254
00> -8825
01> -9734
00> -8478
01> -10221
00> -4113
01> -3468
00> 745
01> 4057
00> -2106
01> 1109
00> -8435
01> -9056
00> -9122
01> -11261
00> -4541
01> -4285
00> 391
01> 3644
00> -2830
01> 383
00> -8749
01> -9446
00> -8566
01> -10276
00> -4061
01> -3381
00> 588
01> 3959
00> -2803
01> 331
00> -8793
01> -9622
00> -8551
01> -10301
00> -4256
01> -3647
00> 736
01> 4061
00> -2766
01> 484
00> -8778
01> -9593
00> -8470
01> -10189
00> -4207
01> -3582
00> 725
01> 4025
00> -2765
01> 451
00> -8813
01> -9657
00> -8474
01> -10212
00> -4201
01> -3575
00> 724
01> 4012
00> -2638
01> 574
00> -8714
01> -9506
00> -8557
01> -10366
00> -4142
01> -3549
00> 596
01> 3893
00> -2725
01> 413
00> -8774
01> -9602
00> -8566
01> -10335
00> -4314
01> -3729
00> 699
01> 3981
00> -2663
01> 591
00> -8739
01> -9520
00> -8539
01> -10291
00> -4314
01> -3741
00> 695
01> 3961
00> -2594
01> 662
00> -8722
01> -9473
00> -8577
01> -10352
00> -4256
01> -3661
00> 631
01> 3921
00> -2674
01> 554
00> -8774
01> -9565
00> -8536
01> -10286
00> -4347
01> -3757
00> 696
01> 3974
00> -2607
01> 694
00> -8731
01> -9470
00> -8558
01> -10307
00> -4354
01> -3777
00> 666
01> 3943
00> -2611
01> 680
00> -8744
01> -9482
00> -8575
01> -10313
00> -4368
01> -3784
00> 664
01> 3939
00> -2587
01> 715
00> -8729
01> -9451
00> -8572
01> -10314
00> -4368
01> -3791
00> 656
01> 3930
00> -2551
01> 754
00> -8718
01> -9433
00> -8519
01> -10271
00> -3922
01> -3242
00> 478
01> 3826
00> -2689
01> 341
00> -8771
01> -9599
00> -8664
01> -10476
00> -4447
01> -3895
00> 639
01> 3919
00> -2524
01> 840
00> -8701
01> -9381
00> -8555
01> -10299
00> -4399
01> -3825
00> 641
01> 3906
00> -2500
01> 834
00> -8686
01> -9368
00> -8611
01> -10366
00> -4463
01> -3912
00> 631
01> 3884
00> -2475
01> 883
00> -8678
01> -9327
00> -8616
01> -10367
00> -4466
01> -3924
00> 611
01> 3861
00> -2458
01> 898
00> -8659
01> -9310
00> -8624
01> -10386
00> -4470
01> -3931
00> 610
01> 3861
00> -2436
01> 933
00> -8677
01> -9312
00> -8466
01> -10226
00> -3665
01> -2893
00> 275
01> 3646
00> -2756
01> 103
00> -8774
01> -9617
00> -8819
01> -10686
00> -4549
01> -4024
00> 578
01> 3888
00> -2395
01> 1068
00> -8644
01> -9204
00> -8596
01> -10299
00> -4490
01> -3915
00> 613
01> 3884
00> -2367
01> 1063
00> -8629
01> -9194
00> -8639
01> -10376
00> -4535
01> -4004
00> 598
01> 3850
00> -2335
01> 1104
00> -8607
01> -9152
00> -8657
01> -10404
00> -4553
01> -4034
00> 577
01> 3816
00> -2314
01> 1122
00> -8580
01> -9120
00> -8641
01> -10397
00> -4551
01> -4040
00> 589
01> 3816
00> -2269
01> 1176
00> -8554
01> -9079
00> -8657
01> -10410
00> -4574
01> -4061
00> 568
01> 3809
00> -2256
01> 1213
00> -8545
01> -9037
00> -8672
01> -10409
00> -4584
01> -4061
00> 558
01> 3808
00> -2238
01> 1241
00> -8539
01> -9015
00> -8696
01> -10434
00> -4622
01> -4097
00> 548
01> 3791
00> -2229
01> 1267
00> -8540
01> -9001
00> -8714
01> -10457
00> -4666
01> -4158
00> 509
01> 3743
00> -2228
01> 1272
00> -8539
01> -8992
00> -8725
01> -10477
00> -4679
01> -4186
00> 499
01> 3723
00> -2207
01> 1295
00> -8549
01> -8987
00> -8755
01> -10503
00> -4714
01> -4214
00> 474
01> 3704
00> -2203
01> 1314
00> -8534
01> -8958
00> -8749
01> -10500
00> -4720
01> -4237
00> 460
01> 3678
00> -2186
01> 1343
00> -8525
01> -8934
00> -8759
01> -10519
00> -4734
01> -4267
00> 465
01> 3674
00> -2167
01> 1365
00> -8533
01> -8936
00> -8786
01> -10546
00> -4767
01> -4302
00> 457
01> 3654
00> -2116
01> 1421
00> -8487
01> -8874
00> -8779
01> -10543
00> -4796
01> -4349
00> 418
01> 3602
00> -2129
01> 1409
00> -8500
01> -8883
00> -8796
01> -10565
00> -4806
01> -4359
00> 441
01> 3618
00> -2079
01> 1463
00> -8476
01> -8852
00> -8804
01> -10583
00> -4824
01> -4395
00> 419
01> 3579
00> -2076
01> 1466
00> -8469
01> -8827
00> -8797
01> -10579
00> -4826
01> -4409
00> 421
01> 3577
00> -2041
01> 1508
00> -8439
01> -8796
00> -8812
01> -10599
00> -4866
01> -4450
00> 396
01> 3542
00> -2033
01> 1534
00> -8447
01> -8779
00> -8817
01> -10607
00> -4882
01> -4473
00> 383
01> 3534
00> -2022
01> 1565
00> -8457
01> -8757
00> -8843
01> -10617
00> -4900
01> -4489
00> 381
01> 3535
00> -1990
01> 1614
00> -8429
01> -8711
00> -8836
01> -10598
00> -4909
01> -4491
00> 375
01> 3537
00> -1969
01> 1658
00> -8408
01> -8673
00> -8833
01> -10604
00> -4924
01> -4510
00> 374
01> 3543
00> -1933
01> 1716
00> -8392
01> -8624
00> -8841
01> -10597
00> -4934
01> -4524
00> 370
01> 3527
00> -1910
01> 1742
00> -8370
01> -8593
00> -8840
01> -10602
00> -4953
01> -4546
00> 361
01> 3523
00> -1876
01> 1797
00> -8344
01> -8543
00> -8826
01> -10572
00> -4956
01> -4539
00> 366
01> 3528
00> -1851
01> 1841
00> -8331
01> -8510
00> -8831
01> -10578
00> -4963
01> -4558
00> 372
01> 3531
00> -1808
01> 1894
00> -8296
01> -8461
00> -8820
01> -10567
00> -4962
01> -4561
00> 370
01> 3527
00> -1793
01> 1909
00> -8286
01> -8437
00> -8826
01> -10571
00> -4968
01> -4566
00> 369
01> 3518
00> -1762
01> 1946
00> -8274
01> -8407
00> -8846
01> -10591
00> -5003
01> -4613
00> 347
01> 3484
00> -1747
01> 1964
00> -8262
01> -8382
00> -8846
01> -10596
00> -5014
01> -4640
00> 343
01> 3466
00> -1725
01> 1994
00> -8242
01> -8356
00> -8846
01> -10602
00> -5027
01> -4658
00> 335
01> 3455
00> -1701
01> 2023
00> -8234
01> -8333
00> -8851
01> -10601
00> -5031
01> -4671
00> 335
01> 3449
00> -1681
01> 2057
00> -8222
01> -8304
00> -8862
01> -10616
00> -5057
01> -4688
00> 321
01> 3436
00> -1667
01> 2083
00> -8215
01> -8284
00> -8874
01> -10633
00> -5084
01> -4729
00> 316
01> 3423
00> -1649
01> 2103
00> -8211
01> -8277
00> -8884
01> -10637
00> -5098
01> -4737
00> 278
01> 3395
00> -1577
01> 2194
00> -8053
01> -8021
00> -8933
01> -10727
00> -4706
01> -4319
00> 41
01> 3223
00> -1881
01> 1592
00> -8309
01> -8499
00> -8941
01> -10725
00> -5186
01> -4818
00> 288
01> 3404
00> -1566
01> 2273
00> -8166
01> -8141
00> -8889
01> -10612
00> -5191
01> -4841
00> 249
01> 3334
00> -1612
01> 2204
00> -8208
01> -8196
00> -8919
01> -10648
00> -5207
01> -4857
00> 228
01> 3313
00> -1593
01> 2228
00> -8196
01> -8163
00> -8931
01> -10669
00> -5222
01> -4885
00> 209
01> 3297
00> -1586
01> 2243
00> -8191
01> -8139
00> -8959
01> -10693
00> -5231
01> -4894
00> 178
01> 3260
00> -1054
01> 2818
00> -7621
01> -7268
00> -9494
01> -11495
00> -5635
01> -5674
00> -99
01> 2919
00> -1681
01> 2208
00> -8228
01> -8043
00> -8977
01> -10619
00> -5204
01> -4794
00> 164
01> 3298
00> -1492
01> 2365
00> -8092
01> -7951
00> -9012
01> -10741
00> -5300
01> -4983
00> 132
01> 3203
00> -1534
01> 2328
00> -8178
01> -8073
00> -8922
01> -10641
00> -5264
01> -4922
00> 167
01> 3235
00> -1492
01> 2365
00> -8138
01> -8024
00> -8976
01> -10702
00> -5332
01> -5014
00> 154
01> 3209
00> -1442
01> 2431
00> -8094
01> -7961
00> -8967
01> -10697
00> -5347
01> -5033
00> 129
01> 3183
00> -1444
01> 2443
00> -8087
01> -7926
00> -8967
01> -10679
00> -5331
01> -5010
00> 148
01> 3208
00> -1403
01> 2498
00> -8048
01> -7862
00> -8977
01> -10683
00> -5352
01> -5042
00> 134
01> 3191
00> -1380
01> 2537
00> -8024
01> -7808
00> -8983
01> -10681
00> -5366
01> -5043
00> 125
01> 3189
00> -1356
01> 2565
00> -8016
01> -7777
00> -8994
01> -10688
00> -5371
01> -5067
00> 108
01> 3170
00> -1342
01> 2596
00> -7984
01> -7734
00> -9002
01> -10704
00> -5395
01> -5090
00> 96
01> 3159
00> -1338
01> 2612
00> -7996
01> -7715
00> -9016
01> -10699
00> -5419
01> -5108
00> 73
01> 3140
00> -1318
01> 2653
00> -7966
01> -7664
00> -8999
01> -10681
00> -5418
01> -5112
00> 60
01> 3126
00> -1309
01> 2675
00> -7968
01> -7651
00> -9018
01> -10699
00> -5439
01> -5136
00> 73
01> 3124
00> -1259
01> 2719
00> -7932
01> -7601
00> -9014
01> -10692
00> -5455
01> -5164
00> 53
01> 3092
00> -1233
01> 2741
00> -7903
01> -7570
00> -9007
01> -10697
00> -5458
01> -5175
00> 46
01> 3079
00> -1249
01> 2740
00> -7964
01> -7622
00> -8967
01> -10648
00> -4877
01> -4471
00> 5
01> 3260
00> -1095
01> 2584
00> -7401
01> -7032
00> -9636
01> -11622
00> -5936
01> -6062
00> -245
01> 2731
00> -1317
01> 2811
00> -7951
01> -7431
00> -8956
01> -10512
00> -5464
01> -5085
00> 41
01> 3128
00> -1174
01> 2893
00> -7908
01> -7467
00> -9026
01> -10667
00> -5542
01> -5251
00> -13
01> 3011
00> -1160
01> 2883
00> -7866
01> -7439
00> -9030
01> -10696
00> -5555
01> -5287
00> -9
01> 3004
00> -1123
01> 2911
00> -7842
01> -7407
00> -9047
01> -10720
00> -5589
01> -5338
00> -44
01> 2951
00> -1121
01> 2906
00> -7826
01> -7382
00> -9051
01> -10734
00> -5587
01> -5354
00> -49
01> 2934
00> -1096
01> 2932
00> -7801
01> -7342
00> -9070
01> -10754
00> -5606
01> -5376
00> -65
01> 2919
00> -1086
01> 2954
00> -7798
01> -7314
00> -9087
01> -10765
00> -5636
01> -5419
00> -88
01> 2876
00> -1076
01> 2956
00> -7778
01> -7292
00> -9084
01> -10765
00> -5646
01> -5432
00> -97
01> 2863
00> -1053
01> 2981
00> -7764
01> -7269
00> -9084
01> -10771
00> -5649
01> -5447
00> -91
01> 2862
00> -1029
01> 3015
00> -7750
01> -7234
00> -9102
01> -10777
00> -5691
01> -5490
00> -132
01> 2806
00> -1024
01> 3013
00> -7735
01> -7218
00> -9097
01> -10786
00> -5692
01> -5509
00> -132
01> 2795
00> -987
01> 3049
00> -7710
01> -7179
00> -9098
01> -10784
00> -5711
01> -5526
00> -132
01> 2784
00> -961
01> 3079
00> -7687
01> -7146
00> -9099
01> -10795
00> -5717
01> -5554
00> -150
01> 2761
00> -943
01> 3103
00> -7664
01> -7109
00> -9103
01> -10800
00> -5730
01> -5569
00> -162
01> 2752
00> -926
01> 3141
00> -7654
01> -7059
00> -9104
01> -10776
00> -5740
01> -5565
00> -161
01> 2761
00> -893
01> 3200
00> -7616
01> -7001
00> -9075
01> -10734
00> -5734
01> -5556
00> -163
01> 2763
00> -877
01> 3229
00> -7602
01> -6961
00> -9081
01> -10718
00> -5741
01> -5542
00> -162
01> 2770
00> -856
01> 3257
00> -7595
01> -6934
00> -9086
01> -10727
00> -5756
01> -5576
00> -178
01> 2742
00> -832
01> 3292
00> -7567
01> -6884
00> -9089
01> -10725
00> -5775
01> -5595
00> -192
01> 2732
00> -801
01> 3326
00> -7533
01> -6840
00> -9094
01> -10731
00> -5796
01> -5628
00> -209
01> 2696
00> -792
01> 3339
00> -7527
01> -6810
00> -9097
01> -10722
00> -5802
01> -5627
00> -210
01> 2701
00> -763
01> 3371
00> -7502
01> -6770
00> -9094
01> -10716
00> -5813
01> -5645
00> -217
01> 2683
00> -751
01> 3389
00> -7488
01> -6745
00> -9094
01> -10717
00> -5822
01> -5666
00> -220
01> 2671
00> -717
01> 3426
00> -7467
01> -6704
00> -9101
01> -10715
00> -5835
01> -5685
00> -253
01> 2635
00> -732
01> 3423
00> -7470
01> -6693
00> -9118
01> -10732
00> -5863
01> -5710
00> -261
01> 2627
00> -710
01> 3449
00> -7456
01> -6661
00> -9127
01> -10739
00> -5881
01> -5732
00> -281
01> 2601
00> -699
01> 3469
00> -7438
01> -6624
00> -9127
01> -10736
00> -5894
01> -5749
00> -298
01> 2584
00> -681
01> 3489
00> -7416
01> -6593
00> -9137
01> -10731
00> -5919
01> -5765
00> -311
01> 2564
00> -666
01> 3512
00> -7414
01> -6572
00> -9136
01> -10725
00> -5946
01> -5803
00> -332
01> 2513
00> -478
01> 3709
00> -6789
01> -5758
00> -9376
01> -10962
00> -6125
01> -6248
00> -529
01> 2277
00> -761
01> 3399
00> -7446
01> -6544
00> -9137
01> -10684
00> -5967
01> -5793
00> -334
01> 2523
00> -575
01> 3659
00> -7342
01> -6430
00> -9117
01> -10694
00> -5979
01> -5841
00> -361
01> 2481
00> -590
01> 3612
00> -7367
01> -6461
00> -9137
01> -10729
00> -5990
01> -5867
00> -362
01> 2461
00> -547
01> 3644
00> -7339
01> -6426
00> -9149
01> -10734
00> -6015
01> -5903
00> -382
01> 2429
00> -528
01> 3664
00> -7299
01> -6376
00> -9144
01> -10743
00> -6037
01> -5947
00> -411
01> 2381
00> -451
01> 3761
00> -7077
01> -6064
00> -9234
01> -10839
00> -6013
01> -5999
00> -497
01> 2322
00> -582
01> 3566
00> -7152
01> -6166
00> -9286
01> -10879
00> -6006
01> -5956
00> -499
01> 2373
00> -599
01> 3550
00> -7251
01> -6302
00> -9216
01> -10814
00> -6148
01> -6084
00> -489
01> 2288
00> -486
01> 3774
00> -7262
01> -6236
00> -9171
01> -10741
00> -6122
01> -6039
00> -494
01> 2291
00> -492
01> 3753
00> -7264
01> -6244
00> -9172
01> -10742
00> -6119
01> -6030
00> -504
01> 2281
00> -497
01> 3755
00> -7269
01> -6224
00> -9209
01> -10782
00> -6146
01> -6084
00> -525
01> 2249
00> -464
01> 3789
00> -7215
01> -6168
00> -9197
01> -10767
00> -6149
01> -6079
00> -527
01> 2258
00> -451
01> 3799
00> -7218
01> -6151
00> -9231
01> -10803
00> -5843
01> -5746
00> -553
01> 2376
00> -681
01> 3378
00> -7251
01> -6337
00> -9278
01> -10907
00> -6213
01> -6174
00> -566
01> 2209
00> -409
01> 3908
00> -7215
01> -6079
00> -9185
01> -10729
00> -6167
01> -6086
00> -579
01> 2194
00> -335
01> 3949
00> -6947
01> -5747
00> -9297
01> -10845
00> -6242
01> -6269
00> -646
01> 2108
00> -416
01> 3856
00> -7156
01> -6016
00> -9169
01> -10708
00> -6176
01> -6093
00> -587
01> 2199
00> -381
01> 3918
00> -7126
01> -5967
00> -9194
01> -10722
00> -6209
01> -6147
00> -583
01> 2181
00> -314
01> 4001
00> -7066
01> -5864
00> -9194
01> -10697
00> -6229
01> -6161
00> -616
01> 2153
00> -322
01> 4003
00> -7056
01> -5837
00> -9192
01> -10700
00> -6223
01> -6168
00> -613
01> 2158
00> -284
01> 4050
00> -7007
01> -5765
00> -9195
01> -10690
00> -6231
01> -6172
00> -622
01> 2158
00> -276
01> 4083
00> -6983
01> -5692
00> -9206
01> -10674
00> -6252
01> -6182
00> -641
01> 2151
00> -264
01> 4103
00> -6945
01> -5648
00> -9187
01> -10664
00> -6253
01> -6198
00> -661
01> 2123
00> -256
01> 4118
00> -6931
01> -5612
00> -9191
01> -10661
00> -6247
01> -6198
00> -644
01> 2135
00> -227
01> 4149
00> -6923
01> -5587
00> -9192
01> -10649
00> -6256
01> -6207
00> -661
01> 2109
00> -203
01> 4176
00> -6877
01> -5523
00> -9186
01> -10634
00> -6280
01> -6232
00> -685
01> 2086
00> -201
01> 4196
00> -6869
01> -5485
00> -9178
01> -10612
00> -6286
01> -6234
00> -697
01> 2070
00> -189
01> 4213
00> -6862
01> -5469
00> -9197
01> -10638
00> -6302
01> -6257
00> -707
01> 2054
00> -162
01> 4236
00> -6837
01> -5424
00> -9201
01> -10634
00> -6322
01> -6287
00> -725
01> 2021
00> -149
01> 4241
00> -6827
01> -5411
00> -9206
01> -10636
00> -6317
01> -6289
00> -732
01> 2014
00> -147
01> 4255
00> -6810
01> -5372
00> -9209
01> -10631
00> -6347
01> -6317
00> -759
01> 1986
00> -130
01> 4281
00> -6781
01> -5321
00> -9208
01> -10616
00> -6357
01> -6326
00> -758
01> 1981
00> -102
01> 4318
00> -6754
01> -5271
00> -9179
01> -10579
00> -6364
01> -6331
00> -796
01> 1948
00> -100
01> 4320
00> -6742
01> -5238
00> -9205
01> -10602
00> -6381
01> -6352
00> -798
01> 1939
00> -86
01> 4346
00> -6734
01> -5202
00> -9214
01> -10602
00> -6404
01> -6380
00> -821
01> 1916
00> -69
01> 4376
00> -6714
01> -5172
00> -9208
01> -10594
00> -6414
01> -6391
00> -829
01> 1901
00> -48
01> 4404
00> -6699
01> -5129
00> -9230
01> -10599
00> -6450
01> -6418
00> -869
01> 1859
00> -59
01> 4395
00> -6699
01> -5119
00> -9236
01> -10602
00> -6462
01> -6431
00> -877
01> 1854
00> -36
01> 4429
00> -6671
01> -5058
00> -9227
01> -10576
00> -6472
01> -6436
00> -899
01> 1836
00> -34
01> 4439
00> -6651
01> -5023
00> -9229
01> -10576
00> -6478
01> -6457
00> -911
01> 1818
00> -24
01> 4462
00> -6634
01> -4987
00> -9232
01> -10574
00> -6476
01> -6465
00> -917
01> 1796
00> -7
01> 4477
00> -6611
01> -4948
00> -9242
01> -10579
00> -6514
01> -6508
00> -947
01> 1761
00> -1
01> 4471
00> -6609
01> -4939
00> -9252
01> -10587
00> -6525
01> -6529
00> -962
01> 1739
00> 19
01> 4503
00> -6577
01> -4888
00> -9243
01> -10572
00> -6535
01> -6534
00> -979
01> 1724
00> 27
01> 4515
00> -6566
01> -4864
00> -9260
01> -10589
00> -6559
01> -6568
00> -1002
01> 1698
00> 27
01> 4523
00> -6561
01> -4834
00> -9263
01> -10577
00> -6569
01> -6581
00> -1013
01> 1672
00> 53
01> 4552
00> -6527
01> -4779
00> -9264
01> -10575
00> -6594
01> -6607
00> -1048
01> 1639
00> 54
01> 4554
00> -6499
01> -4734
00> -9254
01> -10554
00> -6590
01> -6607
00> -1041
01> 1641
00> 74
01> 4579
00> -6497
01> -4724
00> -9271
01> -10571
00> -6620
01> -6640
00> -1079
01> 1600
00> 76
01> 4588
00> -6471
01> -4674
00> -9259
01> -10542
00> -6612
01> -6632
00> -1079
01> 1596
00> 95
01> 4608
00> -6454
01> -4649
00> -9266
01> -10557
00> -6638
01> -6667
00> -1114
01> 1558
00> 85
01> 4611
00> -6459
01> -4621
00> -9303
01> -10561
00> -6681
01> -6699
00> -1140
01> 1528
00> 97
01> 4624
00> -6437
01> -4583
00> -9301
01> -10554
00> -6699
01> -6731
00> -1177
01> 1481
00> 97
01> 4623
00> -6432
01> -4557
00> -9311
01> -10564
00> -6712
01> -6747
00> -1175
01> 1476
00> 125
01> 4651
00> -6416
01> -4522
00> -9321
01> -10556
00> -6736
01> -6770
00> -1207
01> 1436
00> 122
01> 4654
00> -6399
01> -4491
00> -9317
01> -10564
00> -6619
01> -6649
00> -1154
01> 1573
00> 284
01> 4753
00> -5715
01> -3669
00> -9761
01> -11139
00> -7209
01> -7691
00> -1511
01> 974
00> 31
01> 4602
00> -6454
01> -4428
00> -9281
01> -10439
00> -6717
01> -6676
00> -1219
01> 1454
00> 174
01> 4724
00> -6361
01> -4417
00> -9290
01> -10518
00> -6771
01> -6804
00> -1271
01> 1348
00> 188
01> 4732
00> -6333
01> -4366
00> -9309
01> -10537
00> -6792
01> -6856
00> -1281
01> 1306
00> 203
01> 4719
00> -6307
01> -4344
00> -9300
01> -10542
00> -6799
01> -6881
00> -1304
01> 1279
00> 201
01> 4715
00> -6284
01> -4314
00> -9307
01> -10542
00> -6801
01> -6888
00> -1316
01> 1268
00> 207
01> 4718
00> -6264
01> -4279
00> -9332
01> -10563
00> -6841
01> -6933
00> -1341
01> 1236
00> 216
01> 4726
00> -6221
01> -4226
00> -9321
01> -10542
00> -6870
01> -6983
00> -1388
01> 1146
00> 270
01> 4778
00> -5872
01> -3783
00> -9361
01> -10530
00> -6461
01> -6641
00> -1452
01> 1248
00> -234
01> 3924
00> -6292
01> -4547
00> -9446
01> -10726
00> -6808
01> -6945
00> -1350
01> 1303
00> 173
01> 4688
00> -6072
01> -4017
00> -9379
01> -10571
00> -6927
01> -7087
00> -1447
01> 1091
00> 253
01> 4782
00> -6159
01> -4077
00> -9314
01> -10502
00> -6909
01> -7018
00> -1424
01> 1104
00> 294
01> 4820
00> -6160
01> -4074
00> -9318
01> -10504
00> -6912
01> -7017
00> -1451
01> 1081
00> 289
01> 4813
00> -6137
01> -4045
00> -9325
01> -10519
00> -6936
01> -7070
00> -1471
01> 1037
00> 296
01> 4812
00> -6114
01> -4010
00> -9324
01> -10515
00> -6941
01> -7076
00> -1487
01> 1019
00> 299
01> 4808
00> -6080
01> -3966
00> -9329
01> -10501
00> -6945
01> -7078
00> -1483
01> 1029
00> 322
01> 4839
00> -6026
01> -3893
00> -9309
01> -10479
00> -6946
01> -7092
00> -1500
01> 1011
00> 325
01> 4851
00> -6014
01> -3847
00> -9329
01> -10467
00> -6974
01> -7102
00> -1528
01> 995
00> 323
01> 4869
00> -6001
01> -3799
00> -9334
01> -10457
00> -6984
01> -7124
00> -1540
01> 973
00> 343
01> 4882
00> -5984
01> -3774
00> -9332
01> -10442
00> -6997
01> -7124
00> -1561
01> 961
00> 353
01> 4911
00> -5964
01> -3734
00> -9316
01> -10429
00> -6996
01> -7127
00> -1566
01> 948
00> 377
01> 4929
00> -5942
01> -3689
00> -9321
01> -10421
00> -7010
01> -7144
00> -1586
01> 921
00> 386
01> 4944
00> -5911
01> -3649
00> -9310
01> -10412
00> -7007
01> -7156
00> -1588
01> 904
00> 403
01> 4954
00> -5881
01> -3602
00> -9321
01> -10412
00> -7047
01> -7200
00> -1633
01> 852
00> 401
01> 4941
00> -5864
01> -3587
00> -9315
01> -10411
00> -7044
01> -7211
00> -1651
01> 805
00> 647
01> 5179
00> -4737
01> -2197
00> -9516
01> -10502
00> -7642
01> -8386
00> -2047
01> 222
00> 42
01> 4530
00> -5977
01> -3632
00> -9361
01> -10355
00> -7079
01> -7164
00> -1691
01> 819
00> 478
01> 5094
00> -5796
01> -3405
00> -9293
01> -10344
00> -7094
01> -7243
00> -1713
01> 741
00> 473
01> 5023
00> -5783
01> -3432
00> -9287
01> -10362
00> -7083
01> -7258
00> -1706
01> 733
00> 478
01> 5018
00> -5764
01> -3407
00> -9289
01> -10356
00> -7086
01> -7266
00> -1707
01> 726
00> 501
01> 5036
00> -5717
01> -3345
00> -9280
01> -10346
00> -7087
01> -7284
00> -1720
01> 708
00> 498
01> 5031
00> -5687
01> -3302
00> -9281
01> -10334
00> -7097
01> -7300
00> -1726
01> 696
00> 517
01> 5047
00> -5654
01> -3262
00> -9281
01> -10328
00> -7111
01> -7319
00> -1750
01> 672
00> 519
01> 5052
00> -5629
01> -3217
00> -9270
01> -10296
00> -7109
01> -7307
00> -1746
01> 676
00> 544
01> 5085
00> -5615
01> -3174
00> -9280
01> -10296
00> -7136
01> -7341
00> -1779
01> 638
00> 553
01> 5096
00> -5576
01> -3131
00> -9247
01> -10265
00> -7132
01> -7332
00> -1789
01> 627
00> 561
01> 5104
00> -5562
01> -3097
00> -9264
01> -10262
00> -7150
01> -7352
00> -1811
01> 603
00> 563
01> 5113
00> -5552
01> -3056
00> -9266
01> -10247
00> -7150
01> -7347
00> -1806
01> 616
00> 587
01> 5148
00> -5519
01> -2999
00> -9258
01> -10216
00> -7167
01> -7351
00> -1831
01> 588
00> 586
01> 5156
00> -5509
01> -2966
00> -9273
01> -10217
00> -7196
01> -7377
00> -1864
01> 558
00> 583
01> 5155
00> -5493
01> -2927
00> -9271
01> -10198
00> -7197
01> -7384
00> -1877
01> 536
00> 598
01> 5163
00> -5466
01> -2899
00> -9266
01> -10194
00> -7204
01> -7396
00> -1897
01> 517
00> 590
01> 5170
00> -5452
01> -2851
00> -9275
01> -10184
00> -7223
01> -7419
00> -1909
01> 496
00> 619
01> 5199
00> -5417
01> -2801
00> -9263
01> -10166
00> -7235
01> -7428
00> -1938
01> 469
00> 604
01> 5196
00> -5413
01> -2783
00> -9273
01> -10174
00> -7249
01> -7452
00> -1954
01> 447
00> 611
01> 5200
00> -5385
01> -2735
00> -9257
01> -10149
00> -7257
01> -7469
00> -1983
01> 404
00> 605
01> 5189
00> -5390
01> -2734
00> -9274
01> -10168
00> -7273
01> -7481
00> -1978
01> 400
00> 631
01> 5205
00> -5362
01> -2694
00> -9287
01> -10169
00> -7306
01> -7526
00> -2035
01> 336
00> 609
01> 5178
00> -5346
01> -2675
00> -9278
01> -10172
00> -7314
01> -7559
00> -2050
01> 297
00> 608
01> 5173
00> -5334
01> -2655
00> -9291
01> -10177
00> -7334
01> -7574
00> -2076
01> 271
00> 614
01> 5166
00> -5327
01> -2644
00> -9306
01> -10192
00> -7359
01> -7608
00> -2102
01> 245
00> 620
01> 5186
00> -5314
01> -2612
00> -9284
01> -10173
00> -7342
01> -7609
00> -2106
01> 218
00> 634
01> 5185

01> -2617
00> -9319
01> -10188
00> -7165
01> -7393
00> -1797
01> 703
00> 352
01> 4811
00> -5255
01> -2759
00> -9445
01> -10377
00> -7470
01> -7834
00> -2172
01> 169
00> 553
01> 5104
00> -4920
01> -2136
00> -9359
01> -10127
00> -7531
01> -7952
00> -2209
01> 96
00> 473
01> 4999
00> -5332
01> -2599
00> -9338
01> -10179
00> -7399
01> -7636
00> -2194
01> 135
00> 658
01> 5234
00> -5255
01> -2464
00> -9297
01> -10149
00> -7423
01> -7686
00> -2236
01> 63
00> 661
01> 5219
00> -5207
01> -2403
00> -9299
01> -10137
00> -7447
01> -7733
00> -2268
01> 12
00> 644
01> 5196
00> -5189
01> -2377
00> -9299
01> -10132
00> -7459
01> -7749
00> -2261
01> 9
00> 674
01> 5220
00> -5158
01> -2329
00> -9308
01> -10119
00> -7484
01> -7763
00> -2309
01> -27
00> 653
01> 5209
00> -5112
01> -2259
00> -9330
01> -10134
00> -7451
01> -7750
00> -2224
01> 108
00> 556
01> 5080
00> -5011
01> -2206
00> -9355
01> -10151
00> -7546
01> -7912
00> -2337
01> -63
00> 614
01> 5161
00> -4959
01> -2067
00> -9335
01> -10074
00> -7539
01> -7882
00> -2324
01> -31
00> 588
01> 5128
00> -5108
01> -2242
00> -9327
01> -10113
00> -7523
01> -7822
00> -2374
01> -108
00> 674
01> 5238
00> -5089
01> -2177
00> -9304
01> -10079
00> -7536
01> -7837
00> -2400
01> -157
00> 707
01> 5254
00> -5021
01> -2099
00> -9272
01> -10037
00> -7534
01> -7836
00> -2409
01> -161
00> 683
01> 5220
00> -5047
01> -2133
00> -9294
01> -10076
00> -7416
01> -7723
00> -2217
01> 122
00> 568
01> 5057
00> -5008
01> -2201
00> -9318
01> -10126
00> -7567
01> -7915
00> -2455
01> -236
00> 746
01> 5301
00> -4982
01> -1997
00> -9283
01> -10031
00> -7542
01> -7860
00> -2447
01> -232
00> 747
01> 5269
00> -4788
01> -1808
00> -9282
01> -9994
00> -7619
01> -8015
00> -2502
01> -319
00> 701
01> 5214
00> -4937
01> -1965
00> -9253
01> -9987
00> -7532
01> -7846
00> -2436
01> -212
00> 736
01> 5258
00> -4896
01> -1925
00> -9261
01> -9998
00> -7582
01> -7921
00> -2484
01> -291
00> 784
01> 5313
00> -4840
01> -1824
00> -9233
01> -9939
00> -7574
01> -7909
00> -2499
01> -309
00> 780
01> 5308
00> -4803
01> -1765
00> -9214
01> -9896
00> -7567
01> -7900
00> -2486
01> -292
00> 809
01> 5339
00> -4737
01> -1699
00> -9197
01> -9874
00> -7579
01> -7916
00> -2506
01> -307
00> 799
01> 5336
00> -4711
01> -1644
00> -9185
01> -9831
00> -7572
01> -7906
00> -2500
01> -297
00> 805
01> 5357
00> -4677
01> -1578
00> -9176
01> -9810
00> -7591
01> -7929
00> -2528
01> -321
00> 821
01> 5368
00> -4631
01> -1526
00> -9159
01> -9785
00> -7580
01> -7927
00> -2518
01> -329
00> 831
01> 5378
00> -4616
01> -1489
00> -9152
01> -9768
00> -7581
01> -7931
00> -2523
01> -344
00> 871
01> 5403
00> -4557
01> -1426
00> -9133
01> -9726
00> -7596
01> -7937
00> -2548
01> -371
00> 873
01> 5401
00> -4546
01> -1406
00> -9121
01> -9726
00> -7589
01> -7941
00> -2557
01> -384
00> 868
01> 5403
00> -4543
01> -1377
00> -9139
01> -9723
00> -7614
01> -7967
00> -2584
01> -416
00> 879
01> 5401
00> -4499
01> -1336
00> -9117
01> -9692
00> -7615
01> -7962
00> -2603
01> -431
00> 866
01> 5396
00> -4509
01> -1321
00> -9137
01> -9699
00> -7636
01> -7988
00> -2626
01> -470
00> 869
01> 5402
00> -4470
01> -1266
00> -9117
01> -9672
00> -7641
01> -7999
00> -2639
01> -496
00> 883
01> 5403
00> -4437
01> -1229
00> -9119
01> -9670
00> -7657
01> -8023
00> -2657
01> -516
00> 883
01> 5402
00> -4424
01> -1201
00> -9109
01> -9660
00> -7664
01> -8046
00> -2684
01> -555
00> 878
01> 5399
00> -4399
01> -1158
00> -9112
01> -9641
00> -7674
01> -8053
00> -2694
01> -569
00> 884
01> 5402
00> -4391
01> -1132
00> -9122
01> -9641
00> -7704
01> -8082
00> -2734
01> -614
00> 866
01> 5381
00> -4376
01> -1107
00> -9122
01> -9626
00> -7704
01> -8091
00> -2742
01> -624
00> 871
01> 5391
00> -4355
01> -1067
00> -9117
01> -9617
00> -7722
01> -8107
00> -2764
01> -661
00> 881
01> 5394
00> -4329
01> -1027
00> -9113
01> -9604
00> -7737
01> -8128
00> -2796
01> -693
00> 872
01> 5376
00> -4311
01> -1004
00> -9111
01> -9596
00> -7747
01> -8143
00> -2814
01> -714
00> 866
01> 5378
00> -4303
01> -979
00> -9124
01> -9599
00> -7763
01> -8168
00> -2834
01> -749
00> 865
01> 5368
00> -4288
01> -953
00> -9121
01> -9581
00> -7775
01> -8180
00> -2859
01> -774
00> 878
01> 5376
00> -4252
01> -904
00> -9112
01> -9557
00> -7784
01> -8181
00> -2879
01> -791
00> 874
01> 5384
00> -4242
01> -863
00> -9118
01> -9541
00> -7804
01> -8189
00> -2906
01> -804
00> 868
01> 5397
00> -4212
01> -806
00> -9106
01> -9509
00> -7814
01> -8198
00> -2919
01> -831
00> 865
01> 5388
00> -4193
01> -774
00> -9100
01> -9499
00> -7828
01> -8221
00> -2947
01> -866
00> 861
01> 5381
00> -4186
01> -750
00> -9122
01> -9499
00> -7854
01> -8238
00> -2982
01> -889
00> 847
01> 5374
00> -4172
01> -718
00> -9126
01> -9481
00> -7884
01> -8259
00> -3006
01> -921
00> 850
01> 5375
00> -4151
01> -682
00> -9127
01> -9472
00> -7892
01> -8271
00> -3025
01> -946
00> 844
01> 5364
00> -4135
01> -651
00> -9121
01> -9456
00> -7893
01> -8284
00> -3043
01> -979
00> 860
01> 5361
00> -4086
01> -601
00> -9089
01> -9427
00> -7891
01> -8289
00> -3051
01> -990
00> 863
01> 5364
00> -4075
01> -569
00> -9106
01> -9425
00> -7912
01> -8309
00> -3071
01> -1016
00> 864
01> 5366
00> -4040
01> -521
00> -9083
01> -9397
00> -7917
01> -8322
00> -3094
01> -1045
00> 861
01> 5363
00> -4019
01> -489
00> -9080
01> -9387
00> -7913
01> -8336
00> -3097
01> -1064
00> 866
01> 5356
00> -4007
01> -472
00> -9081
01> -9387
00> -7944
01> -8366
00> -3167
01> -1148
00> 893
01> 5371
00> -3421
01> 198
00> -8878
01> -8961
00> -8294
01> -8976
00> -3317
01> -1462
00> 648
01> 5098
00> -4059
01> -495
00> -9116
01> -9351
00> -7933
01> -8303
00> -3182
01> -1134
00> 929
01> 5444
00> -3907
01> -281
00> -9051
01> -9302
00> -7951
01> -8366
00> -3189
01> -1181
00> 891
01> 5376
00> -3919
01> -314
00> -9062
01> -9322
00> -7959
01> -8376
00> -3204
01> -1195
00> 895
01> 5373
00> -3888
01> -280
00> -9052
01> -9303
00> -7967
01> -8394
00> -3216
01> -1226
00> 899
01> 5359
00> -3853
01> -251
00> -9046
01> -9296
00> -7987
01> -8417
00> -3236
01> -1241
00> 884
01> 5348
00> -3836
01> -207
00> -9044
01> -9269
00> -8004
01> -8446
00> -3258
01> -1279
00> 871
01> 5330
00> -3804
01> -174
00> -9036
01> -9251
00> -8012
01> -8462
00> -3278
01> -1312
00> 863
01> 5313
00> -3778
01> -139
00> -9023
01> -9229
00> -8020
01> -8479
00> -3281
01> -1306
00> 857
01> 5301
00> -3396
01> 296
00> -8941
01> -8982
00> -8277
01> -8906
00> -3410
01> -1551
00> 713
01> 5150
00> -3819
01> -145
00> -9054
01> -9206
00> -8008
01> -8411
00> -3324
01> -1331
00> 913
01> 5389
00> -3702
01> 18
00> -9002
01> -9148
00> -8025
01> -8452
00> -3349
01> -1386
00> 901
01> 5366
00> -3688
01> 48
00> -9003
01> -9134
00> -8046
01> -8461
00> -3383
01> -1404
00> 882
01> 5348
00> -3678
01> 73
00> -8996
01> -9109
00> -8051
01> -8486
00> -3387
01> -1433
00> 889
01> 5338
00> -3629
01> 114
00> -8977
01> -9094
00> -8059
01> -8506
00> -3395
01> -1449
00> 891
01> 5333
00> -3592
01> 152
00> -8965
01> -9073
00> -8067
01> -8522
00> -3402
01> -1467
00> 887
01> 5322
00> -3559
01> 198
00> -8950
01> -9048
00> -8076
01> -8549
00> -3422
01> -1497
00> 877
01> 5314
00> -3539
01> 237
00> -8941
01> -9022
00> -8084
01> -8557
00> -3449
01> -1534
00> 864
01> 5286
00> -3539
01> 248
00> -8961
01> -9030
00> -8121
01> -8598
00> -3488
01> -1581
00> 848
01> 5268
00> -3507
01> 289
00> -8951
01> -9004
00> -8136
01> -8617
00> -3522
01> -1621
00> 841
01> 5271
00> -3464
01> 366
00> -8935
01> -8962
00> -8015
01> -8500
00> -2900
01> -811
00> 558
01> 5045
00> -2806
01> 765
00> -8798
01> -8701
00> -8967
01> -9960
00> -4072
01> -2538
00> 531
01> 4974
00> -3599
01> 421
00> -8984
01> -8838
00> -8106
01> -8439
00> -3527
01> -1525
00> 854
01> 5349
00> -3448
01> 451
00> -8948
01> -8937
00> -8159
01> -8605
00> -3599
01> -1691
00> 861
01> 5295
00> -3427
01> 471
00> -8958
01> -8946
00> -8203
01> -8673
00> -3644
01> -1759
00> 825
01> 5237
00> -3411
01> 478
00> -8952
01> -8935
00> -8202
01> -8676
00> -3642
01> -1763
00> 837
01> 5244
00> -3383
01> 521
00> -8944
01> -8913
00> -8216
01> -8711
00> -3667
01> -1807
00> 824
01> 5219
00> -3333
01> 568
00> -8916
01> -8876
00> -8227
01> -8728
00> -3684
01> -1833
00> 806
01> 5204
00> -3330
01> 591
00> -8914
01> -8864
00> -8233
01> -8741
00> -3689
01> -1852
00> 824
01> 5202
00> -3288
01> 626
00> -8899
01> -8846
00> -8248
01> -8768
00> -3716
01> -1890
00> 810
01> 5187
00> -3266
01> 668
00> -8891
01> -8821
00> -8252
01> -8774
00> -3733
01> -1914
00> 811
01> 5180
00> -3248
01> 687
00> -8892
01> -8829
00> -8254
01> -8796
00> -3745
01> -1939
00> 814
01> 5176
00> -3210
01> 735
00> -8871
01> -8797
00> -8275
01> -8816
00> -3778
01> -1989
00> 801
01> 5146
00> -3203
01> 749
00> -8876
01> -8789
00> -8286
01> -8829
00> -3806
01> -2014
00> 787
01> 5142
00> -3186
01> 794
00> -8879
01> -8762
00> -8309
01> -8827
00> -3839
01> -2029
00> 781
01> 5146
00> -3164
01> 836
00> -8869
01> -8736
00> -8300
01> -8833
00> -3842
01> -2044
00> 779
01> 5135
00> -3140
01> 867
00> -8861
01> -8725
00> -8319
01> -8861
00> -3866
01> -2079
00> 784
01> 5136
00> -3105
01> 909
00> -8832
01> -8695
00> -8299
01> -8861
00> -3862
01> -2103
00> 789
01> 5119
00> -3075
01> 940
00> -8827
01> -8679
00> -8322
01> -8887
00> -3886
01> -2127
00> 793
01> 5129
00> -3048
01> 990
00> -8814
01> -8647
00> -8306
01> -8871
00> -3889
01> -2129
00> 779
01> 5127
00> -3035
01> 1034
00> -8811
01> -8616
00> -8334
01> -8877
00> -3917
01> -2151
00> 776
01> 5126
00> -3002
01> 1079
00> -8799
01> -8590
00> -8346
01> -8893
00> -3931
01> -2167
00> 794
01> 5145
00> -2961
01> 1136
00> -8772
01> -8550
00> -8333
01> -8887
00> -3947
01> -2195
00> 779
01> 5116
00> -2948
01> 1146
00> -8774
01> -8551
00> -8349
01> -8909
00> -3959
01> -2214
00> 783
01> 5127
00> -2909
01> 1216
00> -8749
01> -8504
00> -8354
01> -8909
00> -3986
01> -2240
00> 771
01> 5110
00> -2896
01> 1229
00> -8764
01> -8511
00> -8377
01> -8942
00> -4010
01> -2277
00> 758
01> 5090
00> -2887
01> 1255
00> -8759
01> -8492
00> -8392
01> -8957
00> -4029
01> -2302
00> 746
01> 5083
00> -2871
01> 1292
00> -8759
01> -8466
00> -8407
01> -8971
00> -4063
01> -2337
00> 732
01> 5066
00> -2847
01> 1333
00> -8732
01> -8426
00> -8397
01> -8957
00> -4074
01> -2342
00> 722
01> 5060
00> -2828
01> 1365
00> -8734
01> -8410
00> -8422
01> -8972
00> -4105
01> -2371
00> 716
01> 5058
00> -2811
01> 1406
00> -8732
01> -8391
00> -8423
01> -8981
00> -4125
01> -2407
00> 706
01> 5036
00> -2790
01> 1432
00> -8729
01> -8371
00> -8444
01> -9010
00> -4147
01> -2441
00> 692
01> 5015
00> -2768
01> 1458
00> -8722
01> -8364
00> -8457
01> -9036
00> -4164
01> -2471
00> 695
01> 5004
00> -2746
01> 1487
00> -8710
01> -8340
00> -8441
01> -9026
00> -4151
01> -2456
00> 696
01> 4998
00> -1994
01> 2316
00> -8380
01> -7732
00> -9046
01> -10011
00> -4434
01> -3059
00> 310
01> 4574
00> -2796
01> 1413
00> -8706
01> -8223
00> -8545
01> -9097
00> -4157
01> -2424
00> 605
01> 4959
00> -2689
01> 1561
00> -8716
01> -8298
00> -8504
01> -9073
00> -4256
01> -2571
00> 667
01> 4972
00> -2687
01> 1604
00> -8717
01> -8296
00> -8501
01> -9064
00> -4297
01> -2628
00> 682
01> 4956
00> -2636
01> 1657
00> -8694
01> -8266
00> -8516
01> -9096
00> -4322
01> -2666
00> 641
01> 4903
00> -2642
01> 1639
00> -8703
01> -8280
00> -8542
01> -9145
00> -4348
01> -2712
00> 621
01> 4876
00> -2631
01> 1665
00> -8701
01> -8282
00> -8558
01> -9189
00> -4358
01> -2750
00> 618
01> 4859
00> -2602
01> 1686
00> -8688
01> -8269
00> -8574
01> -9227
00> -4377
01> -2789
00> 588
01> 4822
00> -2575
01> 1719
00> -8664
01> -8224
00> -8592
01> -9243
00> -4405
01> -2817
00> 574
01> 4813
00> -2568
01> 1742
00> -8662
01> -8215
00> -8602
01> -9262
00> -4429
01> -2848
00> 578
01> 4803
00> -2532
01> 1786
00> -8658
01> -8195
00> -8618
01> -9281
00> -4460
01> -2896
00> 549
01> 4763
00> -2537
01> 1782
00> -8678
01> -8217
00> -8597
01> -9267
00> -4220
01> -2600
00> 453
01> 4716
00> -2520
01> 1668
00> -8638
01> -8209
00> -8735
01> -9511
00> -4509
01> -3017
00> 443
01> 4633
00> -2468
01> 1843
00> -8627
01> -8113
00> -8712
01> -9461
00> -4503
01> -3043
00> 446
01> 4576
00> -2521
01> 1745
00> -8692
01> -8264
00> -8662
01> -9391
00> -4542
01> -3059
00> 508
01> 4616
00> -2483
01> 1768
00> -8676
01> -8299
00> -8674
01> -9502
00> -4602
01> -3256
00> 513
01> 4487
00> -2424
01> 1733
00> -8629
01> -8339
00> -8716
01> -9679
00> -4646
01> -3422
00> 437
01> 4290
00> -2356
01> 1724
00> -8577
01> -8270
00> -8774
01> -9776
00> -4714
01> -3547
00> 436
01> 4263
00> -2421
01> 1657
00> -8666
01> -8428
00> -8713
01> -9696
00> -4661
01> -3457
00> 421
01> 4244
00> -2430
01> 1600
00> -8659
01> -8443
00> -8745
01> -9776
00> -4723
01> -3592
00> 416
01> 4182
00> -2401
01> 1629
00> -8650
01> -8442
00> -8754
01> -9809
00> -4739
01> -3618
00> 392
01> 4169
00> -2398
01> 1650
00> -8662
01> -8428
00> -8814
01> -9877
00> -4787
01> -3696
00> 348
01> 4095
00> -1953
01> 2127
00> -8167
01> -7663
00> -9259
01> -10545
00> -5079
01> -4311
00> 74
01> 3743
00> -2511
01> 1550
00> -8704
01> -8366
00> -8827
01> -9781
00> -4857
01> -3681
00> 344
01> 4147
00> -2356
01> 1778
00> -8665
01> -8335
00> -8859
01> -9892
00> -4894
01> -3806
00> 297
01> 4035
00> -2364
01> 1726
00> -8666
01> -8362
00> -8872
01> -9921
00> -4912
01> -3829
00> 269
01> 3991
00> -2352
01> 1739
00> -8661
01> -8334
00> -8906
01> -9950
00> -4937
01> -3857
00> 254
01> 3985
00> -2337
01> 1763
00> -8657
01> -8317
00> -8921
01> -9974
00> -4944
01> -3877
00> 246
01> 3958
00> -2304
01> 1773
00> -8618
01> -8281
00> -8917
01> -9971
00> -4950
01> -3886
00> 246
01> 3948
00> -2271
01> 1808
00> -8581
01> -8249
00> -8882
01> -10002
00> -4930
01> -3949
00> 282
01> 3922
00> -2214
01> 1857
00> -8557
01> -8237
00> -8773
01> -9873
00> -4392
01> -3289
00> 229
01> 3984
00> -1742
01> 2069
00> -7970
01> -7505
00> -9493
01> -10953
00> -5344
01> -4794
00> 34
01> 3569
00> -2224
01> 1899
00> -8519
01> -8060
00> -8792
01> -9802
00> -4869
01> -3818
00> 349
01> 3991
00> -2089
01> 1978
00> -8496
01> -8164
00> -8809
01> -9926
00> -4797
01> -3816
00> 269
01> 3866
00> -2007
01> 1977
00> -8360
01> -7978
00> -8940
01> -10116
00> -5037
01> -4144
00> 246
01> 3813
00> -2048
01> 2034
00> -8425
01> -8021
00> -8875
01> -10012
00> -5014
01> -4097
00> 281
01> 3849
00> -2031
01> 2052
00> -8446
01> -8067
00> -8859
01> -10001
00> -5002
01> -4072
00> 285
01> 3853
00> -1997
01> 2100
00> -8424
01> -8011
00> -8879
01> -10003
00> -5034
01> -4104
00> 255
01> 3819
00> -2002
01> 2090
00> -8433
01> -8044
00> -8908
01> -10079
00> -5076
01> -4166
00> 222
01> 3788
00> -1979
01> 2141
00> -8407
01> -7944
00> -8912
01> -10035
00> -5062
01> -4146
00> 221
01> 3781
00> -1967
01> 2151
00> -8407
01> -7932
00> -8936
01> -10031
00> -5099
01> -4151
00> 206
01> 3784
00> -1918
01> 2226
00> -8355
01> -7854
00> -8952
01> -10060
00> -5151
01> -4228
00> 154
01> 3741
00> -1939
01> 2246
00> -8367
01> -7823
00> -8944
01> -10032
00> -5131
01> -4198
00> 181
01> 3758
00> -1904
01> 2260
00> -8364
01> -7829
00> -8944
01> -10039
00> -5146
01> -4217
00> 185
01> 3761
00> -1864
01> 2313
00> -8340
01> -7783
00> -8961
01> -10040
00> -5184
01> -4249
00> 148
01> 3724
00> -1856
01> 2350
00> -8317
01> -7729
00> -8939
01> -10029
00> -5162
01> -4272
00> 168
01> 3700
00> -1816
01> 2373
00> -8288
01> -7717
00> -8944
01> -10072
00> -5173
01> -4314
00> 181
01> 3669
00> -1778
01> 2364
00> -8269
01> -7717
00> -8939
01> -10085
00> -5194
01> -4370
00> 148
01> 3624
00> -1774
01> 2374
00> -8252
01> -7717
00> -8931
01> -10141
00> -5187
01> -4424
00> 171
01> 3580
00> -1718
01> 2377
00> -8231
01> -7722
00> -8942
01> -10181
00> -5217
01> -4490
00> 146
01> 3540
00> -1707
01> 2396
00> -8211
01> -7684
00> -8946
01> -10174
00> -5238
01> -4494
00> 136
01> 3548
00> -1673
01> 2458
00> -8191
01> -7629
00> -8956
01> -10159
00> -5262
01> -4501
00> 126
01> 3556
00> -1645
01> 2527
00> -8151
01> -7571
00> -8940
01> -10155
00> -5264
01> -4514
00> 119
01> 3534
00> -1639
01> 2524
00> -8164
01> -7554
00> -8959
01> -10149
00> -5268
01> -4521
00> 123
01> 3531
00> -1601
01> 2578
00> -8135
01> -7517
00> -8944
01> -10153
00> -5270
01> -4556
00> 113
01> 3495
00> -1552
01> 2627
00> -8064
01> -7383
00> -8876
01> -10067
00> -4491
01> -3579
00> -129
01> 3453
00> -2019
01> 1651
00> -8274
01> -7935
00> -9066
01> -10334
00> -5324
01> -4563
00> 115
01> 3557
00> -1516
01> 2744
00> -8102
01> -7392
00> -8926
01> -10055
00> -5327
01> -4534
00> 105
01> 3524
00> -1497
01> 2749
00> -8078
01> -7354
00> -8950
01> -10081
00> -5364
01> -4594
00> 86
01> 3493
00> -1477
01> 2788
00> -8071
01> -7324
00> -8963
01> -10101
00> -5382
01> -4625
00> 54
01> 3438
00> -1476
01> 2759
00> -8050
01> -7322
00> -8964
01> -10112
00> -5391
01> -4621
00> 49
01> 3459
00> -1439
01> 2821
00> -8010
01> -7251
00> -8968
01> -10114
00> -5410
01> -4668
00> 20
01> 3397
00> -1437
01> 2821
00> -8011
01> -7228
00> -8994
01> -10149
00> -5436
01> -4718
00> 10
01> 3367
00> -1401
01> 2840
00> -7982
01> -7199
00> -8994
01> -10150
00> -5448
01> -4722
00> -9
01> 3358
00> -1181
01> 3075
00> -7433
01> -6478
00> -9269
01> -10462
00> -5614
01> -5107
00> -206
01> 3134
00> -1477
01> 2792
00> -8015
01> -7158
00> -8971
01> -10071
00> -5483
01> -4730
00> 19
01> 3379
00> -1285
01> 3023
00> -7946
01> -7098
00> -9024
01> -10162
00> -5546
01> -4836
00> -43
01> 3290
00> -1327
01> 2966
00> -7957
01> -7127
00> -9019
01> -10177
00> -5533
01> -4828
00> -44
01> 3271
00> -1300
01> 2970
00> -7932
01> -7099
00> -9038
01> -10252
00> -5556
01> -4921
00> -53
01> 3280
00> -1281
01> 3051
00> -7924
01> -7054
00> -9037
01> -10234
00> -5562
01> -4876
00> -72
01> 3302
00> -1246
01> 3113
00> -7866
01> -6913
00> -9021
01> -10106
00> -5560
01> -4808
00> -79
01> 3323
00> -1226
01> 3173
00> -7842
01> -6833
00> -9009
01> -10061
00> -5541
01> -4741
00> -58
01> 3448
00> -1161
01> 3395
00> -7777
01> -6559
00> -8989
01> -9800
00> -5534
01> -4512
00> -43
01> 3629
00> -1134
01> 3549
00> -7763
01> -6454
00> -9004
01> -9785
00> -5581
01> -4521
00> -96
01> 3636
00> -1170
01> 3613
00> -7814
01> -6369
00> -9080
01> -9741
00> -5665
01> -4559
00> -162
01> 3564
00> -1190
01> 3588
00> -7844
01> -6401
00> -9139
01> -9824
00> -5741
01> -4658
00> -231
01> 3496
00> -1212
01> 3576
00> -7856
01> -6426
00> -9164
01> -9877
00> -5781
01> -4721
00> -286
01> 3408
00> -1241
01> 3513
00> -7874
01> -6464
00> -9191
01> -9916
00> -5811
01> -4751
00> -316
01> 3368
00> -1245
01> 3501
00> -7879
01> -6464
00> -9211
01> -9951
00> -5829
01> -4811
00> -324
01> 3326
00> -1243
01> 3518
00> -7886
01> -6458
00> -9241
01> -10002
00> -5876
01> -4875
00> -371
01> 3269
00> -1248
01> 3498
00> -7908
01> -6472
00> -9287
01> -10057
00> -5941
01> -4967
00> -421
01> 3196
00> -1243
01> 3503
00> -7898
01> -6450
00> -9311
01> -10080
00> -5975
01> -5007
00> -451
01> 3166
00> -1235
01> 3523
00> -7882
01> -6429
00> -9313
01> -10112
00> -5984
01> -5047
00> -452
01> 3153
00> -1196
01> 3563
00> -7852
01> -6386
00> -9321
01> -10102
00> -6008
01> -5065
00> -476
01> 3131
00> -1175
01> 3591
00> -7821
01> -6330
00> -9305
01> -10086
00> -6021
01> -5083
00> -494
01> 3082
00> -1176
01> 3565
00> -7822
01> -6337
00> -9310
01> -10123
00> -6022
01> -5122
00> -495
01> 3056
00> -1155
01> 3588
00> -7815
01> -6303
00> -9349
01> -10115
00> -6075
01> -5144
00> -539
01> 3023
00> -1157
01> 3611
00> -7813
01> -6280
00> -9353
01> -10140
00> -6091
01> -5184
00> -557
01> 2998
00> -1152
01> 3607
00> -7809
01> -6281
00> -9366
01> -10148
00> -6118
01> -5212
00> -587
01> 2964
00> -1125
01> 3637
00> -7793
01> -6235
00> -9382
01> -10168
00> -6150
01> -5277
00> -613
01> 2918
00> -1124
01> 3665
00> -7780
01> -6192
00> -9389
01> -10167
00> -6166
01> -5295
00> -631
01> 2887
00> -1111
01> 3659
00> -7767
01> -6185
00> -9391
01> -10159
00> -6186
01> -5292
00> -641
01> 2887
00> -1099
01> 3699
00> -7769
01> -6138
00> -9424
01> -10179
00> -6206
01> -5346
00> -658
01> 2843
00> -1079
01> 3713
00> -7739
01> -6126
00> -9413
01> -10206
00> -6225
01> -5374
00> -674
01> 2823
00> -1052
01> 3728
00> -7709
01> -6089
00> -9407
01> -10182
00> -6236
01> -5381
00> -683
01> 2806
00> -1030
01> 3758
00> -7703
01> -6052
00> -9430
01> -10196
00> -6251
01> -5409
00> -688
01> 2787
00> -999
01> 3789
00> -7672
01> -6015
00> -9422
01> -10197
00> -6277
01> -5441
00> -730
01> 2746
00> -999
01> 3806
00> -7652
01> -5973
00> -9425
01> -10201
00> -6283
01> -5458
00> -730
01> 2733
00> -967
01> 3834
00> -7627
01> -5931
00> -9431
01> -10189
00> -6306
01> -5483
00> -759
01> 2710
00> -969
01> 3839
00> -7626
01> -5932
00> -9438
01> -10241
00> -6319
01> -5529
00> -764
01> 2684
00> -934
01> 3865
00> -7598
01> -5868
00> -9434
01> -10197
00> -6334
01> -5519
00> -783
01> 2674
00> -926
01> 3887
00> -7581
01> -5842
00> -9440
01> -10203
00> -6330
01> -5527
00> -766
01> 2681
00> -877
01> 3955
00> -7541
01> -5795
00> -9447
01> -10239
00> -6364
01> -5604
00> -797
01> 2609
00> -862
01> 3941
00> -7515
01> -5754
00> -9423
01> -10182
00> -6357
01> -5559
00> -799
01> 2648
00> -818
01> 4028
00> -7473
01> -5657
00> -9401
01> -10131
00> -6342
01> -5538
00> -769
01> 2678
00> -743
01> 4131
00> -7377
01> -5548
00> -9343
01> -10077
00> -6299
01> -5494
00> -722
01> 2729
00> -654
01> 4237
00> -7282
01> -5382
00> -9273
01> -9934
00> -6237
01> -5359
00> -665
01> 2874
00> -562
01> 4440
00> -7195
01> -5185
00> -9221
01> -9796
00> -6213
01> -5252
00> -642
01> 2964
00> -511
01> 4545
00> -7152
01> -5068
00> -9183
01> -9684
00> -6201
01> -5192
00> -631
01> 3011
00> -376
01> 4770
00> -6763
01> -4499
00> -9307
01> -9747
00> -6232
01> -5346
00> -724
01> 2949
00> -532
01> 4602
00> -7142
01> -4936
00> -9150
01> -9556
00> -6196
01> -5090
00> -609
01> 3092
00> -364
01> 4869
00> -7052
01> -4774
00> -9143
01> -9531
00> -6222
01> -5142
00> -646
01> 3064
00> -359
01> 4883
00> -7034
01> -4742
00> -9131
01> -9499
00> -6211
01> -5091
00> -650
01> 3098
00> -356
01> 4939
00> -7017
01> -4666
00> -9143
01> -9491
00> -6227
01> -5113
00> -674
01> 3086
00> -332
01> 4955
00> -6980
01> -4632
00> -9146
01> -9507
00> -6227
01> -5137
00> -669
01> 3057
00> -294
01> 4979
00> -6932
01> -4559
00> -9144
01> -9489
00> -6244
01> -5148
00> -696
01> 3036
00> -292
01> 4993
00> -6905
01> -4521
00> -9150
01> -9516
00> -6265
01> -5206
00> -723
01> 2973
00> -284
01> 4991
00> -6887
01> -4474
00> -9165
01> -9496
00> -6295
01> -5211
00> -737
01> 3009
00> -242
01> 5056
00> -6850
01> -4429
00> -9167
01> -9500
00> -6302
01> -5229
00> -759
01> 2956
00> -263
01> 5039
00> -6862
01> -4411
00> -9176
01> -9496
00> -6326
01> -5236
00> -776
01> 2956
00> -237
01> 5081
00> -6851
01> -4381
00> -9172
01> -9515
00> -6331
01> -5293
00> -788
01> 2899
00> -215
01> 5101
00> -6812
01> -4321
00> -9165
01> -9477
00> -6344
01> -5289
00> -805
01> 2876
00> -57
01> 5248
00> -6252
01> -3606
00> -9354
01> -9662
00> -6514
01> -5706
00> -978
01> 2661
00> -322
01> 4968
00> -6844
01> -4311
00> -9171
01> -9445
00> -6383
01> -5296
00> -829
01> 2861
00> -90
01> 5257
00> -6739
01> -4171
00> -9184
01> -9462
00> -6397
01> -5369
00> -842
01> 2814
00> -103
01> 5222
00> -6723
01> -4184
00> -9146
01> -9482
00> -6411
01> -5398
00> -856
01> 2770
00> -82
01> 5234
00> -6639
01> -4064
00> -9193
01> -9495
00> -6370
01> -5362
00> -884
01> 2793
00> -142
01> 5144
00> -6636
01> -4054
00> -9257
01> -9567
00> -6521
01> -5522
00> -947
01> 2668
00> -80
01> 5251
00> -6701
01> -4095
00> -9196
01> -9493
00> -6431
01> -5414
00> -947
01> 2715
00> -89
01> 5219
00> -6610
01> -3980
00> -9217
01> -9546
00> -6489
01> -5555
00> -962
01> 2611
00> -51
01> 5254
00> -6676
01> -4062
00> -9156
01> -9476
00> -6471
01> -5464
00> -957
01> 2664
00> -16
01> 5289
00> -6611
01> -3995
00> -9175
01> -9484
00> -6535
01> -5536
00> -1004
01> 2599
00> -16
01> 5316
00> -6601
01> -3923
00> -9189
01> -9487
00> -6553
01> -5562
00> -1029
01> 2571
00> -8
01> 5328
00> -6573
01> -3881
00> -9211
01> -9491
00> -6567
01> -5604
00> -1049
01> 2529
00> -9
01> 5331
00> -6540
01> -3825
00> -9199
01> -9486
00> -6557
01> -5612
00> -1043
01> 2531
00> 28
01> 5384
00> -6473
01> -3752
00> -9187
01> -9455
00> -6571
01> -5617
00> -1076
01> 2506
00> 41
01> 5389
00> -6447
01> -3694
00> -9174
01> -9439
00> -6557
01> -5631
00> -1073
01> 2491
00> 69
01> 5423
00> -6402
01> -3642
00> -9176
01> -9436
00> -6577
01> -5651
00> -1071
01> 2474
00> 95
01> 5435
00> -6392
01> -3627
00> -9189
01> -9452
00> -6602
01> -5680
00> -1093
01> 2448
00> 129
01> 5466
00> -6354
01> -3562
00> -9182
01> -9434
00> -6613
01> -5691
00> -1115
01> 2440
00> 128
01> 5504
00> -6329
01> -3510
00> -9160
01> -9411
00> -6611
01> -5697
00> -1126
01> 2403
00> 140
01> 5491
00> -6302
01> -3471
00> -9183
01> -9410
00> -6562
01> -5637
00> -1109
01> 2476
00> 382
01> 5709
00> -5231
01> -2176
00> -9485
01> -9642
00> -7267
01> -6930
00> -1586
01> 1712
00> -91
01> 5272
00> -6366
01> -3381
00> -9174
01> -9266
00> -6640
01> -5624
00> -1166
01> 2413
00> 268
01> 5718
00> -6215
01> -3242
00> -9145
01> -9309
00> -6671
01> -5751
00> -1207
01> 2316
00> 228
01> 5648
00> -6211
01> -3285
00> -9146
01> -9364
00> -6677
01> -5773
00> -1211
01> 2288
00> 259
01> 5637
00> -6185
01> -3246
00> -9139
01> -9350
00> -6676
01> -5793
00> -1217
01> 2276
00> 283
01> 5666
00> -6151
01> -3186
00> -9170
01> -9366
00> -6719
01> -5852
00> -1258
01> 2222
00> 255
01> 5640
00> -6133
01> -3162
00> -9168
01> -9374
00> -6736
01> -5874
00> -1288
01> 2190
00> 282
01> 5644
00> -6079
01> -3089
00> -9156
01> -9322
00> -6732
01> -5856
00> -1294
01> 2184
00> 281
01> 5664
00> -6084
01> -3052
00> -9186
01> -9346
00> -6761
01> -5918
00> -1324
01> 2152
00> 296
01> 5706
00> -6046
01> -2992
00> -9179
01> -9334
00> -6782
01> -5942
00> -1361
01> 2092
00> 300
01> 5694
00> -6021
01> -2968
00> -9173
01> -9332
00> -6786
01> -5950
00> -1364
01> 2081
00> 342
01> 5721
00> -5983
01> -2909
00> -9161
01> -9307
00> -6789
01> -5952
00> -1365
01> 2073
00> 359
01> 5735
00> -5962
01> -2885
00> -9171
01> -9317
00> -6812
01> -5980
00> -1413
01> 2041
00> 430
01> 5843
00> -5091
01> -1790
00> -9180
01> -9109
00> -6644
01> -6123
00> -1459
01> 2101
00> -459
01> 4577
00> -6291
01> -3554
00> -9347
01> -9507
00> -6846
01> -5934
00> -1417
01> 2116
00> 451
01> 5979
00> -5847
01> -2577
00> -9171
01> -9196
00> -6874
01> -6024
00> -1494
01> 1943
00> 399
01> 5845
00> -5887
01> -2679
00> -9160
01> -9243
00> -6882
01> -6054
00> -1516
01> 1910
00> 409
01> 5853
00> -5874
01> -2656
00> -9177
01> -9283
00> -6907
01> -6111
00> -1542
01> 1846
00> 406
01> 5814
00> -5839
01> -2631
00> -9184
01> -9274
00> -6931
01> -6121
00> -1555
01> 1843
00> 429
01> 5841
00> -5793
01> -2553
00> -9181
01> -9264
00> -6939
01> -6171
00> -1591
01> 1795
00> 429
01> 5834
00> -5779
01> -2521
00> -9209
01> -9269
00> -6966
01> -6196
00> -1605
01> 1764
00> 449
01> 5844
00> -5734
01> -2469
00> -9187
01> -9259
00> -6964
01> -6206
00> -1600
01> 1736
00> 479
01> 5864
00> -5676
01> -2406
00> -9169
01> -9253
00> -6901
01> -6166
00> -1566
01> 1816
00> 586
01> 5941
00> -4816
01> -1354
00> -9467
01> -9492
00> -7486
01> -7192
00> -1969
01> 1184
00> 334
01> 5748
00> -5753
01> -2332
00> -9149
01> -9107
00> -6940
01> -6067
00> -1626
01> 1800
00> 522
01> 5982
00> -5626
01> -2279
00> -9136
01> -9176
00> -6996
01> -6245
00> -1706
01> 1623
00> 540
01> 5974
00> -5616
01> -2247
00> -9160
01> -9208
00> -7031
01> -6273
00> -1723
01> 1648
00> 556
01> 6036
00> -5577
01> -2124
00> -9177
01> -9131
00> -7066
01> -6256
00> -1746
01> 1608
00> 552
01> 6014
00> -5526
01> -2066
00> -9135
01> -9116
00> -7048
01> -6288
00> -1759
01> 1572
00> 546
01> 5984
00> -5518
01> -2064
00> -9153
01> -9131
00> -7064
01> -6317
00> -1786
01> 1545
00> 543
01> 6016
00> -5487
01> -2002
00> -9170
01> -9129
00> -7120
01> -6365
00> -1856
01> 1468
00> 619
01> 6099
00> -4925
01> -1308
00> -9173
01> -8967
00> -7336
01> -6811
00> -1971
01> 1273
00> 409
01> 5828
00> -5509
01> -1981
00> -9182
01> -9083
00> -7122
01> -6331
00> -1864
01> 1463
00> 651
01> 6136
00> -5386
01> -1807
00> -9118
01> -9041
00> -7129
01> -6380
00> -1887
01> 1409
00> 628
01> 6092
00> -5390
01> -1812
00> -9136
01> -9042
00> -7136
01> -6368
00> -1889
01> 1433
00> 660
01> 6138
00> -5339
01> -1737
00> -9151
01> -9036
00> -7164
01> -6405
00> -1918
01> 1393
00> 656
01> 6120
00> -5309
01> -1703
00> -9129
01> -9015
00> -7147
01> -6413
00> -1922
01> 1371
00> 674
01> 6126
00> -5266
01> -1651
00> -9143
01> -9025
00> -7189
01> -6469
00> -1946
01> 1343
00> 679
01> 6129
00> -5215
01> -1584
00> -9109
01> -8980
00> -7174
01> -6468
00> -1951
01> 1298
00> 688
01> 6117
00> -5188
01> -1551
00> -9122
01> -8980
00> -7205
01> -6502
00> -2001
01> 1245
00> 676
01> 6098
00> -5169
01> -1507
00> -9127
01> -8966
00> -7221
01> -6529
00> -2009
01> 1234
00> 698
01> 6151
00> -5132
01> -1417
00> -9110
01> -8921
00> -7224
01> -6511
00> -2022
01> 1238
00> 719
01> 6168
00> -5091
01> -1374
00> -9089
01> -8912
00> -7234
01> -6542
00> -2055
01> 1170
00> 717
01> 6143
00> -5077
01> -1369
00> -9086
01> -8929
00> -7227
01> -6569
00> -2057
01> 1152
00> 743
01> 6164
00> -5047
01> -1312
00> -9097
01> -8911
00> -7260
01> -6587
00> -2094
01> 1113
00> 751
01> 6168
00> -5013
01> -1257
00> -9094
01> -8892
00> -7282
01> -6611
00> -2127
01> 1078
00> 739
01> 6178
00> -5001
01> -1223
00> -9111
01> -8907
00> -7317
01> -6659
00> -2170
01> 1026
00> 743
01> 6178
00> -4970
01> -1161
00> -9104
01> -8881
00> -7327
01> -6676
00> -2199
01> 999
00> 726
01> 6179
00> -4965
01> -1129
00> -9103
01> -8864
00> -7326
01> -6688
00> -2202
01> 963
00> 765
01> 6197
00> -4898
01> -1051
00> -9081
01> -8830
00> -7351
01> -6695
00> -2240
01> 951
00> 758
01> 6214
00> -4900
01> -1020
00> -9089
01> -8834
00> -7350
01> -6717
00> -2238
01> 906
00> 762
01> 6198
00> -4877
01> -982
00> -9106
01> -8844
00> -7399
01> -6779
00> -2307
01> 854
00> 756
01> 6203
00> -4836
01> -925
00> -9086
01> -8811
00> -7412
01> -6782
00> -2351
01> 804
00> 724
01> 6175
00> -4849
01> -907
00> -9122
01> -8826
00> -7445
01> -6817
00> -2369
01> 789
00> 755
01> 6218
00> -4801
01> -837
00> -9097
01> -8787
00> -7443
01> -6811
00> -2390
01> 766
00> 751
01> 6222
00> -4779
01> -792
00> -9101
01> -8791
00> -7471
01> -6872
00> -2429
01> 687
00> 752
01> 6186
00> -4751
01> -761
00> -9107
01> -8790
00> -7482
01> -6889
00> -2434
01> 678
00> 767
01> 6211
00> -4716
01> -698
00> -9095
01> -8748
00> -7471
01> -6879
00> -2429
01> 670
00> 804
01> 6231
00> -4662
01> -645
00> -9066
01> -8729
00> -7490
01> -6902
00> -2470
01> 628
00> 803
01> 6241
00> -4644
01> -595
00> -9087
01> -8721
00> -7517
01> -6934
00> -2507
01> 583
00> 783
01> 6213
00> -4635
01> -574
00> -9088
01> -8724
00> -7532
01> -6976
00> -2524
01> 530
00> 804
01> 6214
00> -4601
01> -518
00> -9087
01> -8711
00> -7552
01> -6992
00> -2566
01> 506
00> 794
01> 6233
00> -4564
01> -448
00> -9067
01> -8662
00> -7543
01> -6977
00> -2564
01> 502
00> 814
01> 6244
00> -4530
01> -397
00> -9063
01> -8645
00> -7556
01> -6980
00> -2589
01> 482
00> 826
01> 6264
00> -4497
01> -342
00> -9052
01> -8623
00> -7581
01> -7026
00> -2636
01> 420
00> 816
01> 6254
00> -4479
01> -291
00> -9065
01> -8604
00> -7601
01> -7032
00> -2651
01> 395
00> 836
01> 6261
00> -4441
01> -246
00> -9056
01> -8586
00> -7611
01> -7052
00> -2673
01> 361
00> 840
01> 6256
00> -4401
01> -196
00> -9041
01> -8579
00> -7614
01> -7083
00> -2682
01> 328
00> 856
01> 6270
00> -4349
01> -118
00> -9025
01> -8519
00> -7620
01> -7075
00> -2703
01> 320
00> 864
01> 6279
00> -4314
01> -75
00> -9011
01> -8508
00> -7621
01> -7094
00> -2722
01> 276
00> 868
01> 6264
00> -4296
01> -50
00> -9023
01> -8507
00> -7662
01> -7132
00> -2765
01> 228
00> 857
01> 6261
00> -4271
01> 7
00> -9009
01> -8501
00> -7672
01> -7164
00> -2782
01> 181
00> 871
01> 6257
00> -4256
01> 72
00> -8999
01> -8454
00> -7701
01> -7132
00> -2809
01> 184
00> 873
01> 6279
00> -4195
01> 109
00> -8997
01> -8454
00> -7686
01> -7180
00> -2826
01> 158
00> 869
01> 6267
00> -4197
01> 153
00> -9009
01> -8421
00> -7717
01> -7210
00> -2873
01> 83
00> 863
01> 6266
00> -4152
01> 197
00> -8996
01> -8437
00> -7749
01> -7238
00> -2939
01> 28
00> 865
01> 6236
00> -3928
01> 477
00> -8955
01> -8279
00> -7845
01> -7417
00> -2939
01> -34
00> 776
01> 6117
00> -4180
01> 186
00> -9031
01> -8424
00> -7759
01> -7219
00> -2968
01> -40
00> 919
01> 6319
00> -4049
01> 379
00> -8961
01> -8348
00> -7761
01> -7279
00> -3015
01> -87
00> 893
01> 6251
00> -4049
01> 363
00> -8989
01> -8361
00> -7786
01> -7283
00> -3012
01> -95
00> 901
01> 6253
00> -4021
01> 421
00> -8974
01> -8342
00> -7796
01> -7316
00> -3034
01> -146
00> 852
01> 6214
00> -4033
01> 463
00> -8997
01> -8321
00> -7824
01> -7339
00> -3059
01> -161
00> 870
01> 6225
00> -3971
01> 514
00> -8999
01> -8282
00> -7835
01> -7352
00> -3101
01> -205
00> 836
01> 6221
00> -3942
01> 606
00> -8976
01> -8235
00> -7844
01> -7365
00> -3105
01> -201
00> 849
01> 6222
00> -3217
01> 1359
00> -8577
01> -7547
00> -8025
01> -7821
00> -2779
01> 111
00> -21
01> 5171
00> -4378
01> -354
00> -9216
01> -8598
00> -7943
01> -7393
00> -3179
01> -164
00> 916
01> 6401
00> -3784
01> 891
00> -8932
01> -8097
00> -7923
01> -7406
00> -3249
01> -339
00> 856
01> 6255
00> -3830
01> 791
00> -8957
01> -8154
00> -7919
01> -7397
00> -3261
01> -357
00> 853
01> 6248
00> -3792
01> 856
00> -8967
01> -8144
00> -7939
01> -7465
00> -3235
01> -340
00> 856
01> 6224
00> -2951
01> 1786
00> -8942
01> -7959
00> -8522
01> -8492
00> -3679
01> -1114
00> 598
01> 5913
00> -3882
01> 839
00> -8997
01> -8101
00> -7940
01> -7396
00> -3293
01> -386
00> 825
01> 6209
00> -3724
01> 938
00> -8937
01> -8108
00> -7989
01> -7519
00> -3379
01> -537
00> 830
01> 6190
00> -3689
01> 1004
00> -8924
01> -8062
00> -7983
01> -7511
00> -3383
01> -541
00> 840
01> 6189
00> -3650
01> 1066
00> -8923
01> -8042
00> -8019
01> -7550
00> -3426
01> -589
00> 811
01> 6171
00> -3626
01> 1121
00> -8913
01> -8014
00> -8026
01> -7572
00> -3444
01> -625
00> 809
01> 6147
00> -3622
01> 1115
00> -8940
01> -8043
00> -7912
01> -7447
00> -2959
01> 33
00> 500
01> 5859
00> -3641
01> 805
00> -8984
01> -8171
00> -8180
01> -7843
00> -3536
01> -774
00> 800
01> 6133
00> -3562
01> 1233
00> -8892
01> -7959
00> -8020
01> -7554
00> -3500
01> -694
00> 838
01> 6156
00> -3508
01> 1271
00> -8881
01> -7949
00> -8058
01> -7625
00> -3549
01> -781
00> 832
01> 6124
00> -3464
01> 1322
00> -8862
01> -7917
00> -8084
01> -7661
00> -3592
01> -836
00> 800
01> 6088
00> -3453
01> 1348
00> -8877
01> -7912
00> -8109
01> -7689
00> -3601
01> -850
00> 797
01> 6088
00> -3417
01> 1415
00> -8865
01> -7871
00> -8131
01> -7715
00> -3639
01> -884
00> 769
01> 6074
00> -3395
01> 1464
00> -8861
01> -7832
00> -8149
01> -7727
00> -3657
01> -906
00> 771
01> 6068
00> -3349
01> 1524
00> -8836
01> -7787
00> -8156
01> -7733
00> -3681
01> -944
00> 758
01> 6044
00> -3326
01> 1550
00> -8842
01> -7786
00> -8181
01> -7774
00> -3720
01> -1001
00> 748
01> 6021
00> -3299
01> 1596
00> -8836
01> -7757
00> -8197
01> -7792
00> -3752
01> -1041
00> 744
01> 6009
00> -3272
01> 1633
00> -8838
01> -7754
00> -8220
01> -7830
00> -3777
01> -1080
00> 739
01> 6008
00> -3227
01> 1705
00> -8806
01> -7692
00> -8217
01> -7812
00> -3791
01> -1084
00> 729
01> 6011
00> -3217
01> 1759
00> -8811
01> -7665
00> -8234
01> -7823
00> -3819
01> -1115
00> 719
01> 6002
00> -3186
01> 1799
00> -8804
01> -7644
00> -8251
01> -7861
00> -3842
01> -1164
00> 739
01> 5989
00> -3138
01> 1839
00> -8790
01> -7629
00> -8264
01> -7876
00> -3891
01> -1206
00> 703
01> 5954
00> -3117
01> 1873
00> -8779
01> -7599
00> -8270
01> -7889
00> -3904
01> -1248
00> 704
01> 5935
00> -3085
01> 1922
00> -8752
01> -7562
00> -8281
01> -7907
00> -3929
01> -1284
00> 699
01> 5924
00> -3047
01> 1971
00> -8747
01> -7527
00> -8291
01> -7913
00> -3948
01> -1316
00> 684
01> 5913
00> -3016
01> 2022
00> -8739
01> -7507
00> -8309
01> -7941
00> -3981
01> -1356
00> 693
01> 5882
00> -2976
01> 2054
00> -8723
01> -7475
00> -8320
01> -7955
00> -4023
01> -1404
00> 668
01> 5871
00> -2942
01> 2113
00> -8709
01> -7440
00> -8320
01> -7954
00> -4011
01> -1416
00> 698
01> 5867
00> -2900
01> 2156
00> -8697
01> -7414
00> -8333
01> -7973
00> -4042
01> -1451
00> 693
01> 5853
00> -2875
01> 2189
00> -8691
01> -7408
00> -8352
01> -7992
00> -4076
01> -1501
00> 690
01> 5843
00> -2819
01> 2261
00> -8661
01> -7355
00> -8359
01> -8010
00> -4104
01> -1527
00> 682
01> 5829
00> -2794
01> 2302
00> -8639
01> -7327
00> -8348
01> -8023
00> -4112
01> -1571
00> 665
01> 5818
00> -2769
01> 2353
00> -8652
01> -7294
00> -8384
01> -8031
00> -4162
01> -1594
00> 636
01> 5799
00> -2753
01> 2407
00> -8631
01> -7276
00> -8397
01> -8078
00> -4189
01> -1661
00> 626
01> 5763
00> -2721
01> 2443
00> -8625
01> -7244
00> -8407
01> -8099
00> -4199
01> -1704
00> 633
01> 5744
00> -2679
01> 2493
00> -8592
01> -7203
00> -8411
01> -8112
00> -4230
01> -1731
00> 630
01> 5734
00> -2647
01> 2524
00> -8588
01> -7193
00> -8438
01> -8123
00> -4258
01> -1768
00> 643
01> 5736
00> -2605
01> 2589
00> -8581
01> -7147
00> -8437
01> -8134
00> -4276
01> -1801
00> 623
01> 5707
00> -2570
01> 2620
00> -8571
01> -7148
00> -8456
01> -8174
00> -4294
01> -1851
00> 600
01> 5682
00> -2554
01> 2651
00> -8572
01> -7119
00> -8485
01> -8211
00> -4358
01> -1909
00> 577
01> 5648
00> -2522
01> 2689
00> -8546
01> -7086
00> -8474
01> -8197
00> -4362
01> -1932
00> 578
01> 5644
00> -2491
01> 2746
00> -8542
01> -7044
00> -8507
01> -8214
00> -4406
01> -1964
00> 571
01> 5634
00> -2451
01> 2809
00> -8512
01> -6998
00> -8507
01> -8214
00> -4427
01> -1982
00> 543
01> 5606
00> -2424
01> 2856
00> -8514
01> -6967
00> -8346
01> -8068
00> -3749
01> -1117
00> 156
01> 5229
00> -2692
01> 2121
00> -8617
01> -7272
00> -8649
01> -8444
00> -4524
01> -2107
00> 545
01> 5623
00> -2323
01> 3033
00> -8453
01> -6825
00> -8542
01> -8232
00> -4527
01> -2122
00> 521
01> 5546
00> -2349
01> 2971
00> -8488
01> -6914
00> -8497
01> -8212
00> -4318
01> -1849
00> 469
01> 5523
00> -2304
01> 2899
00> -8459
01> -6904
00> -8595
01> -8338
00> -4601
01> -2234
00> 534
01> 5528
00> -2206
01> 3128
00> -8401
01> -6767
00> -8584
01> -8331
00> -4608
01> -2271
00> 517
01> 5493
00> -2222
01> 3121
00> -8427
01> -6791
00> -8573
01> -8296
00> -4622
01> -2274
00> 513
01> 5480
00> -2175
01> 3186
00> -8381
01> -6722
00> -8559
01> -8304
00> -4601
01> -2267
00> 471
01> 5441
00> -1923
01> 3449
00> -7974
01> -6134
00> -8822
01> -8649
00> -4637
01> -2449
00> 262
01> 5210
00> -2247
01> 3050
00> -8409
01> -6704
00> -8593
01> -8301
00> -4702
01> -2342
00> 497
01> 5479
00> -2046
01> 3394
00> -8312
01> -6548
00> -8583
01> -8300
00> -4712
01> -2405
00> 469
01> 5410
00> -2044
01> 3373
00> -8304
01> -6550
00> -8594
01> -8327
00> -4746
01> -2432
00> 449
01> 5369
00> -1990
01> 3399
00> -8272
01> -6517
00> -8611
01> -8351
00> -4384
01> -2027
00> 351
01> 5376
00> -1442
01> 3810
00> -7685
01> -5702
00> -9404
01> -9502
00> -5351
01> -3552
00> 64
01> 4884
00> -2091
01> 3418
00> -8319
01> -6392
00> -8597
01> -8227
00> -4752
01> -2377
00> 415
01> 5388
00> -1931
01> 3533
00> -8260
01> -6431
00> -8649
01> -8380
00> -4849
01> -2566
00> 392
01> 5298
00> -1887
01> 3580
00> -8219
01> -6371
00> -8647
01> -8385
00> -4856
01> -2592
00> 377
01> 5264
00> -1874
01> 3601
00> -8215
01> -6352
00> -8682
01> -8432
00> -4901
01> -2653
00> 348
01> 5223
00> -1860
01> 3613
00> -8220
01> -6329
00> -8706
01> -8458
00> -4927
01> -2697
00> 318
01> 5178
00> -1812
01> 3657
00> -8176
01> -6279
00> -8732
01> -8501
00> -4965
01> -2765
00> 284
01> 5129
00> -1806
01> 3670
00> -8169
01> -6256
00> -8737
01> -8517
00> -4986
01> -2794
00> 286
01> 5118
00> -1757
01> 3732
00> -8129
01> -6191
00> -8738
01> -8508
00> -5010
01> -2818
00> 268
01> 5103
00> -1727
01> 3781
00> -8126
01> -6152
00> -8761
01> -8518
00> -5047
01> -2856
00> 243
01> 5072
00> -1712
01> 3814
00> -8119
01> -6119
00> -8764
01> -8512
00> -5051
01> -2868
00> 251
01> 5076
00> -1669
01> 3884
00> -8093
01> -6060
00> -8779
01> -8527
00> -5087
01> -2912
00> 226
01> 5048
00> -1636
01> 3918
00> -8067
01> -6019
00> -8764
01> -8517
00> -5075
01> -2921
00> 233
01> 5042
00> -1600
01> 3974
00> -8046
01> -5964
00> -8780
01> -8511
00> -5114
01> -2938
00> 218
01> 5050
00> -1547
01> 4059
00> -8014
01> -5902
00> -8799
01> -8527
00> -5154
01> -2987
00> 181
01> 5006
00> -1542
01> 4079
00> -8005
01> -5872
00> -8799
01> -8537
00> -5174
01> -3017
00> 179
01> 4985
00> -1505
01> 4130
00> -7977
01> -5810
00> -8807
01> -8531
00> -5194
01> -3043
00> 164
01> 4967
00> -1483
01> 4163
00> -7959
01> -5771
00> -8814
01> -8537
00> -5220
01> -3076
00> 149
01> 4943
00> -1446
01> 4203
00> -7929
01> -5725
00> -8817
01> -8543
00> -5246
01> -3114
00> 127
01> 4901
00> -1421
01> 4231
00> -7915
01> -5688
00> -8825
01> -8560
00> -5267
01> -3166
00> 102
01> 4866
00> -1404
01> 4264
00> -7906
01> -5657
00> -8845
01> -8579
00> -5297
01> -3197
00> 99
01> 4849
00> -1358
01> 4316
00> -7875
01> -5602
00> -8849
01> -8582
00> -5327
01> -3232
00> 66
01> 4815
00> -1342
01> 4339
00> -7862
01> -5568
00> -8864
01> -8596
00> -5345
01> -3261
00> 64
01> 4799
00> -1304
01> 4386
00> -7835
01> -5524
00> -8859
01> -8589
00> -5359
01> -3289
00> 49
01> 4777
00> -1266
01> 4433
00> -7802
01> -5477
00> -8872
01> -8604
00> -5392
01> -3332
00> 27
01> 4743
00> -1237
01> 4468
00> -7787
01> -5431
00> -8891
01> -8610
00> -5426
01> -3364
00> 9
01> 4714
00> -1197
01> 4518
00> -7731
01> -5350
00> -8882
01> -8614
00> -4916
01> -2804
00> -24
01> 4874
00> -970
01> 4498
00> -7009
01> -4522
00> -9640
01> -9641
00> -6050
01> -4549
00> -389
01> 4170
00> -1309
01> 4511
00> -7789
01> -5239
00> -8846
01> -8448
00> -5427
01> -3287
00> -9
01> 4736
00> -1111
01> 4668
00> -7705
01> -5257
00> -8892
01> -8604
00> -5527
01> -3494
00> -53
01> 4618
00> -1084
01> 4683
00> -7677
01> -5220
00> -8912
01> -8636
00> -5574
01> -3554
00> -96
01> 4558
00> -1073
01> 4683
00> -7672
01> -5199
00> -8927
01> -8648
00> -5579
01> -3586
00> -126
01> 4510
00> -1067
01> 4706
00> -7657
01> -5149
00> -8966
01> -8677
00> -5612
01> -3631
00> -139
01> 4481
00> -1052
01> 4717
00> -7649
01> -5127
00> -8990
01> -8710
00> -5652
01> -3678
00> -182
01> 4445
00> -1050
01> 4739
00> -7644
01> -5081
00> -9003
01> -8715
00> -5687
01> -3729
00> -205
01> 4395
00> -1017
01> 4766
00> -7618
01> -5054
00> -9027
01> -8747
00> -5718
01> -3779
00> -234
01> 4348
00> -999
01> 4789
00> -7599
01> -4991
00> -9017
01> -8741
00> -5733
01> -3811
00> -251
01> 4314
00> -979
01> 4810
00> -7578
01> -4970
00> -9034
01> -8762
00> -5767
01> -3852
00> -282
01> 4281
00> -969
01> 4827
00> -7572
01> -4950
00> -9049
01> -8794
00> -5811
01> -3913
00> -312
01> 4231
00> -936
01> 4863
00> -7531
01> -4896
00> -9064
01> -8799
00> -5842
01> -3957
00> -360
01> 4181
00> -919
01> 4884
00> -7507
01> -4860
00> -9077
