# SEGGER J-Link RTT Viewer V6.62 Terminal Log File
# Compiled: 16:34:01 on Jan 24 2020
# Logging started @ 07 Jun 2024 22:46:37

00> 8105
01> 2869
00> 8080
01> 2846
00> 7989
01> 2683
00> 7961
01> 2647
00> 8019
01> 2736
00> 8098
01> 2842
00> 8094
01> 2840
00> 8044
01> 2719
00> 7991
01> 2648
00> 8036
01> 2751
00> 8117
01> 2862
00> 8046
01> 2799
00> 7982
01> 2654
00> 7984
01> 2629
00> 8002
01> 2715
00> 8059
01> 2811
00> 8086
01> 2809
00> 8031
01> 2688
00> 8003
01> 2661
00> 8033
01> 2751
00> 8071
01> 2830
00> 8074
01> 2846
00> 8036
01> 2723
00> 7996
01> 2650
00> 8003
01> 2711
00> 8026
01> 2799
00> 8052
01> 2815
00> 8009
01> 2667
00> 7974
01> 2614
00> 8029
01> 2741
00> 8087
01> 2828
00> 8065
01> 2817
00> 8011
01> 2690
00> 8021
01> 2690
00> 8062
01> 2793
00> 8021
01> 2782
00> 8025
01> 2771
00> 7991
01> 2660
00> 7998
01> 2648
00> 8026
01> 2736
00> 8044
01> 2799
00> 8050
01> 2804
00> 8005
01> 2685
00> 7989
01> 2638
00> 8003
01> 2709
00> 8046
01> 2801
00> 8072
01> 2831
00> 7991
01> 2689
00> 7987
01> 2634
00> 8024
01> 2718
00> 8033
01> 2808
00> 8033
01> 2804
00> 7971
01> 2648
00> 8020
01> 2663
00> 8074
01> 2772
00> 8035
01> 2786
00> 8007
01> 2747
00> 7958
01> 2614
00> 7977
01> 2625
00> 8025
01> 2727
00> 8068
01> 2816
00> 8044
01> 2805
00> 7961
01> 2643
00> 7943
01> 2589
00> 7998
01> 2691
00> 8054
01> 2821
00> 8061
01> 2836
00> 7978
01> 2647
00> 7941
01> 2579
00> 7984
01> 2691
00> 8032
01> 2794
00> 8055
01> 2826
00> 7992
01> 2665
00> 7948
01> 2583
00> 7998
01> 2703
00> 8089
01> 2849
00> 8068
01> 2823
00> 7959
01> 2641
00> 7957
01> 2623
00> 8009
01> 2733
00> 8049
01> 2808
00> 8044
01> 2788
00> 7954
01> 2622
00> 7928
01> 2588
00> 7984
01> 2721
00> 8044
01> 2819
00> 8016
01> 2773
00> 7953
01> 2637
00> 7950
01> 2627
00> 7994
01> 2731
00> 8016
01> 2801
00> 8019
01> 2786
00> 7948
01> 2616
00> 7926
01> 2573
00> 8000
01> 2715
01> 
00> 8064
01> 2848
00> 8081
01> 2866
00> 7984
01> 2667
00> 7975
01> 2639
00> 7976
01> 2718
00> 8000
01> 2762
00> 8013
01> 2765
00> 7971
01> 2668
00> 7958
01> 2644
00> 7955
01> 2703
00> 7989
01> 2784
00> 8012
01> 2800
00> 7971
01> 2661
00> 7913
01> 2573
00> 7972
01> 2699
00> 8040
01> 2843
00> 8001
01> 2800
00> 7924
01> 2640
00> 7906
01> 2585
00> 7973
01> 2719
00> 8049
01> 2849
00> 8048
01> 2823
00> 8009
01> 2691
00> 7939
01> 2609
00> 7929
01> 2677
00> 8001
01> 2784
00> 7996
01> 2786
00> 7905
01> 2618
00> 7919
01> 2566
00> 7961
01> 2687
00> 8010
01> 2813
00> 8004
01> 2807
00> 7952
01> 2661
00> 7930
01> 2577
00> 7943
01> 2663
00> 7986
01> 2774
00> 8004
01> 2796
00> 7958
01> 2672
00> 7937
01> 2591
00> 7944
01> 2641
00> 7970
01> 2751
00> 7991
01> 2774
00> 7914
01> 2615
00> 7918
01> 2574
00> 7959
01> 2699
00> 7989
01> 2798
00> 7994
01> 2786
00> 7919
01> 2615
00> 7906
01> 2556
00> 7961
01> 2687
00> 7971
01> 2770
00> 7976
01> 2770
00> 7952
01> 2639
00> 7885
01> 2546
00> 7917
01> 2650
00> 7984
01> 2773
00> 7988
01> 2783
00> 7895
01> 2598
00> 7853
01> 2531
00> 7906
01> 2647
00> 7974
01> 2773
00> 7993
01> 2779
00> 7903
01> 2599
00> 7858
01> 2520
00> 7921
01> 2658
00> 7984
01> 2781
00> 7976
01> 2790
00> 7899
01> 2607
00> 7887
01> 2546
00> 7918
01> 2662
00> 7942
01> 2746
00> 7922
01> 2720
00> 7888
01> 2588
00> 7892
01> 2559
00> 7903
01> 2642
00> 7931
01> 2744
00> 7942
01> 2733
00> 7866
01> 2574
00> 7860
01> 2543
00> 7940
01> 2676
00> 7989
01> 2793
00> 7940
01> 2737
00> 7886
01> 2569
00> 7869
01> 2537
00> 7894
01> 2649
00> 7956
01> 2743
00> 7956
01> 2748
00> 7844
01> 2552
00> 7841
01> 2499
00> 7921
01> 2649
00> 7986
01> 2776
00> 7989
01> 2779
00> 7871
01> 2579
00> 7814
01> 2501
00> 7887
01> 2639
00> 7940
01> 2738
00> 7953
01> 2753
00> 7871
01> 2581
00> 7824
01> 2501
00> 7896
01> 2631
00> 7943
01> 2732
00> 7934
01> 2734
00> 7908
01> 2621
00> 7879
01> 2556
00> 7884
01> 2615
00> 7905
01> 2713
00> 7946
01> 2755
00> 7886
01> 2579
00> 7831
01> 2486
00> 7904
01> 2619
00> 7924
01> 2709
00> 7933
01> 2728
00> 7871
01> 2575
00> 7827
01> 2504
00> 7878
01> 2620
00> 7923
01> 2709
00> 7920
01> 2684
00> 7864
01> 2533
00> 7869
01> 2528
00> 7892
01> 2608
00> 7900
01> 2627
00> 7860
01> 2597
00> 7819
01> 2480
00> 7838
01> 2464
00> 7863
01> 2569
00> 7912
01> 2674
00> 7927
01> 2696
00> 7857
01> 2533
00> 7802
01> 2438
00> 7881
01> 2561
00> 7933
01> 2677
00> 7915
01> 2677
00> 7851
01> 2523
00> 7807
01> 2426
00> 7871
01> 2559
00> 7910
01> 2669
00> 7908
01> 2660
00> 7834
01> 2494
00> 7803
01> 2434
00> 7861
01> 2561
00> 7926
01> 2695
00> 7920
01> 2658
00> 7818
01> 2460
00> 7804
01> 2426
00> 7867
01> 2559
00> 7935
01> 2682
00> 7919
01> 2673
00> 7850
01> 2509
00> 7809
01> 2416
00> 7841
01> 2511
00> 7936
01> 2668
00> 7938
01> 2681
00> 7819
01> 2485
00> 7799
01> 2420
00> 7861
01> 2552
00> 7931
01> 2670
00> 7935
01> 2685
00> 7863
01> 2538
00> 7807
01> 2458
00> 7826
01> 2519
00> 7874
00> 5969
01> 2570
00> 5882
01> 2446
00> 5903
01> 2536
00> 5998
01> 2591
00> 6026
01> 2636
00> 5978
01> 2576
00> 5942
01> 2493
00> 5942
01> 2519
00> 5956
01> 2570
00> 5997
01> 2608
00> 5961
01> 2579
00> 5896
01> 2461
00> 5899
01> 2471
00> 5984
01> 2576
00> 6005
01> 2629
00> 5958
01> 2558
00> 5909
01> 2462
00> 5906
01> 2504
00> 5966
01> 2601
00> 5999
01> 2618
00> 5981
01> 2576
00> 5949
01> 2513
00> 5941
01> 2520
00> 5965
01> 2565
00> 5979
01> 2599
00> 5946
01> 2574
00> 5918
01> 2498
00> 5917
01> 2489
00> 5970
01> 2561
00> 5985
01> 2598
00> 5963
01> 2583
00> 5948
01> 2541
00> 5943
01> 2543
00> 5959
01> 2597
00> 5972
01> 2627
00> 5966
01> 2583
00> 5945
01> 2503
00> 5944
01> 2524
00> 5963
01> 2576
00> 5983
01> 2605
00> 5970
01> 2580
00> 5928
01> 2514
00> 5933
01> 2519
00> 5919
01> 2545
00> 5951
01> 2603
00> 5956
01> 2573
00> 5942
01> 2524
00> 5939
01> 2531
00> 5958
01> 2576
00> 5970
01> 2592
00> 5915
01> 2524
00> 5899
01> 2486
00> 5927
01> 2535
00> 5954
01> 2593
00> 5976
01> 2621
00> 5958
01> 2579
00> 5928
01> 2523
00> 5921
01> 2528
00> 5948
01> 2562
00> 5968
01> 2608
00> 5957
01> 2585
00> 5911
01> 2507
00> 5933
01> 2523
00> 5948
01> 2567
00> 5959
01> 2587
00> 5946
01> 2555
00> 5929
01> 2511
00> 5943
01> 2549
00> 5951
01> 2586
00> 5964
01> 2609
00> 5962
01> 2588
00> 5921
01> 2521
00> 5932
01> 2543
00> 5943
01> 2581
00> 5960
01> 2596
00> 5955
01> 2579
00> 5921
01> 2547
00> 5946
01> 2548
00> 5971
01> 2601
00> 5980
01> 2631
00> 5958
01> 2598
00> 5944
01> 2550
00> 5940
01> 2539
00> 5966
01> 2585
00> 5960
01> 2626
00> 5969
01> 2601
00> 5957
01> 2558
00> 5952
01> 2559
00> 5959
01> 2574
00> 5955
01> 2596
00> 5971
01> 2586
00> 5948
01> 2533
00> 5929
01> 2539
00> 5949
01> 2583
00> 5962
01> 2601
00> 5941
01> 2578
00> 5923
01> 2535
00> 5926
01> 2551
00> 5952
01> 2601
00> 5973
01> 2638
00> 5969
01> 2615
00> 5942
01> 2549
00> 5932
01> 2542
00> 5924
01> 2560
00> 5966
01> 2623
00> 5963
01> 2618
00> 5941
01> 2560
00> 5951
01> 2568
00> 5967
01> 2613
00> 5991
01> 2633
00> 5967
01> 2603
00> 5949
01> 2561
00> 5953
01> 2566
00> 5971
01> 2607
00> 5987
01> 2634
00> 5973
01> 2618
00> 5943
01> 2561
00> 5953
01> 2565
00> 5971
01> 2611
00> 5983
01> 2651
00> 5986
01> 2634
00> 5961
01> 2580
00> 5951
01> 2572
00> 5964
01> 2607
00> 5985
01> 2639
00> 5961
01> 2611
00> 5934
01> 2553
00> 5948
01> 2569
00> 5982
01> 2631
00> 5983
01> 2646
00> 5964
01> 2638
00> 5954
01> 2591
00> 5958
01> 2571
00> 5962
01> 2599
00> 6029
01> 2678
00> 6013
01> 2664
00> 5978
01> 2609
00> 5962
01> 2593
00> 5973
01> 2643
00> 6003
01> 2661
00> 5987
01> 2634
00> 5929
01> 2569
00> 5944
01> 2539
00> 5966
01> 2584
00> 6024
01> 2686
00> 6019
01> 2659
00> 5986
01> 2570
00> 5989
01> 2583
00> 5966
01> 2583
00> 5960
01> 2588
00> 5976
01> 2643
00> 6004
01> 2623
00> 6007
01> 2607
00> 6015
01> 2642
00> 6011
01> 2667
00> 5990
01> 2649
00> 5928
01> 2554
00> 5914
01> 2506
00> 5883
01> 2522
00> 5928
01> 2584
00> 5994
01> 2626
00> 5985
01> 2616
00> 5946
01> 2572
00> 5918
01> 2549
00> 5892
01> 2576
00> 5923
01> 2556
00> 5906
01> 2545
00> 5901
01> 2558
00> 5968
01> 2582
00> 5969
01> 2604
00> 5956
01> 2589
00> 5957
01> 2574
00> 5936
01> 2524
00> 5941
01> 2574
00> 5919
01> 2683
00> 5928
01> 2584
00> 5912
01> 2493
00> 5913
01> 2493
00> 5973
01> 2566
00> 5963
01> 2625
00> 5920
01> 2548
00> 5901
01> 2533
00> 5884
01> 2481
00> 5941
01> 2574
00> 5978
01> 2627
00> 5948
01> 2610
00> 5896
01> 2506
00> 5871
01> 2438
00> 5966
01> 2574
00> 5953
01> 2609
00> 5952
01> 2599
00> 5954
01> 2547
00> 5924
01> 2533
00> 5953
01> 2603
00> 5986
01> 2614
00> 5905
01> 2538
00> 5888
01> 2454
00> 5929
01> 2496
00> 5976
01> 2611
00> 5939
01> 2583
00> 5973
01> 2610
00> 5978
01> 2552
00> 5952
01> 2519
00> 5904
01> 2564
00> 5923
01> 2582
00> 5991
01> 2622
00> 5998
01> 2569
00> 6005
01> 2566
00> 5952
01> 2563
00> 5949
01> 2572
00> 5993
01> 2594
00> 5938
01> 2536
00> 5924
01> 2533
00> 6036
01> 2613
00> 6065
01> 2701
00> 6028
01> 2641
00> 5976
01> 2528
00> 5938
01> 2480
00> 5964
01> 2588
00> 5986
01> 2653
00> 5994
01> 2556
00> 6024
01> 2610
00> 6046
01> 2650
00> 5998
01> 2581
00> 5929
01> 2555
00> 5986
01> 2608
00> 6022
01> 2624
00> 6014
01> 2627
00> 5918
01> 2630
00> 5981
01> 2605
00> 5985
01> 2619
00> 5963
01> 2531
00> 5969
01> 2564
00> 5983
01> 2714
00> 6019
01> 2683
00> 6023
01> 2643
00> 6004
01> 2576
00> 6006
01> 2606
00> 6041
01> 2678
00> 6015
01> 2642
00> 5968
01> 2571
00> 5997
01> 2621
00> 5992
01> 2581
00> 6030

00> 6051
01> 2694
00> 6033
01> 2678
00> 6009
01> 2606
00> 5994
01> 2560
00> 6000
01> 2617
00> 6032
01> 2693
00> 6051
01> 2701
00> 6009
01> 2629
00> 6039
01> 2654
00> 6075
01> 2668
00> 6045
01> 2665
00> 5995
01> 2624
00> 6001
01> 2621
00> 6043
01> 2696
00> 6062
01> 2679
00> 6071
01> 2716
00> 6068
01> 2719
00> 6017
01> 2626
00> 6003
01> 2594
00> 6028
01> 2676
00> 6060
01> 2724
00> 6046
01> 2668
00> 5984
01> 2582
00> 6030
01> 2634
00> 6091
01> 2702
00> 6059
01> 2669
00> 6040
01> 2633
00> 6053
01> 2651
00> 6028
01> 2629
00> 5994
01> 2664
00> 6028
01> 2710
00> 6089
01> 2708
00> 6001
01> 2608
00> 6042
01> 2616
00> 6068
01> 2656
00> 6082
01> 2694
00> 6061
01> 2708
00> 6033
01> 2623
00> 5951
01> 2554
00> 6020
01> 2659
00> 6090
01> 2741
00> 6021
01> 2677
00> 6016
01> 2592
00> 6009
01> 2603
00> 6041
01> 2672
00> 6068
01> 2700
00> 6083
01> 2709
00> 6010
01> 2596
00> 5999
01> 2601
00> 6008
01> 2663
00> 6028
01> 2658
00> 6059
01> 2703
00> 6039
01> 2641
00> 5981
01> 2554
00> 6016
01> 2621
00> 6078
01> 2707
00> 6038
01> 2684
00> 6018
01> 2610
00> 5974
01> 2596
00> 5958
01> 2598
00> 6071
01> 2700
00> 6079
01> 2719
00> 6035
01> 2629
00> 6002
01> 2568
00> 5986
01> 2595
00> 6013
01> 2644
00> 6016
01> 2658
00> 5973
01> 2610
00> 5974
01> 2584
00> 5991
01> 2597
00> 6009
01> 2636
00> 6042
01> 2677
00> 6017
01> 2630
00> 5998
01> 2593
00> 5996
01> 2608
00> 6019
01> 2634
00> 6011
01> 2631
00> 6026
01> 2624
00> 5967
01> 2581
00> 5965
01> 2600
00> 6051
01> 2671
00> 6008
01> 2646
00> 5999
01> 2595
00> 6021
01> 2598
00> 6024
01> 2651
00> 6024
01> 2683
00> 6026
01> 2675
00> 5989
01> 2596
00> 5946
01> 2533
00> 6003
01> 2613
00> 6024
01> 2638
00> 6032
01> 2678
00> 5994
01> 2604
00> 6031
01> 2619
00> 6024
01> 2633
00> 6026
01> 2634
00> 5984
01> 2633
00> 5966
01> 2575
00> 5966
01> 2543
00> 6008
01> 2600
00> 6055
01> 2651
00> 6037
01> 2624
00> 6004
01> 2606
00> 6011
01> 2608
00> 6019
01> 2627
00> 6011
01> 2670
00> 6016
01> 2634
00> 6005
01> 2585
00> 6009
01> 2596
00> 6034
01> 2636
00> 6021
01> 2645
00> 5986
01> 2633
00> 5963
01> 2595
00> 6044
01> 2615
00> 6036
01> 2634
00> 5997
01> 2626
00> 6038
01> 2687
00> 6034
01> 2632
00> 6016
01> 2604
00> 6036
01> 2644
00> 6038
01> 2660
00> 5972
01> 2650
00> 5968
01> 2566
00> 5978
01> 2579
00> 6026
01> 2629
00> 6053
01> 2674
00> 6077
01> 2715
00> 6015
01> 2596
00> 6008
01> 2574
00> 6038
01> 2641
00> 6033
01> 2666
00> 6019
01> 2655
00> 5986
01> 2578
00> 6019
01> 2579
00> 6000
01> 2606
00> 5996
01> 2643
00> 6040
01> 2658
00> 6003
01> 2618
00> 5967
01> 2549
00> 6021
01> 2623
00> 6036
01> 2652
00> 6045
01> 2682
00> 6022
01> 2612
00> 5997
01> 2565
00> 5989
01> 2603
00> 6010
01> 2637
00> 6026
01> 2661
00> 6004
01> 2639
00> 5929
01> 2532
00> 5997
01> 2614
00> 6048
01> 2724
00> 6039
01> 2676
00> 6031
01> 2624
00> 5999
01> 2579
00> 5991
01> 2628
00> 6048
01> 2669
00> 6048
01> 2692
00> 6017
01> 2618
00> 5955
01> 2547
00> 6000
01> 2631
00> 6013
01> 2654
00> 6031
01> 2681
00> 5984
01> 2571
00> 6017
01> 2613
00> 6008
01> 2639
00> 6049
01> 2693
00> 6013
01> 2651
00> 6021
01> 2618
00> 6017
01> 2628
00> 6009
01> 2643
00> 6011
01> 2661
00> 6021
01> 2649
00> 5981
01> 2591
00> 5918
01> 2518
00> 5973
01> 2581
00> 6068
01> 2696
00> 6058
01> 2713
00> 6017
01> 2653
00> 6030
01> 2616
00> 6029
01> 2639
00> 6044
01> 2677
00> 5997
01> 2628
00> 5967
01> 2563
00> 5998
01> 2602
00> 5999
01> 2636
00> 6036
01> 2673
00> 6027
01> 2674
00> 6023
01> 2611
00> 5993
01> 2565
00> 6003
01> 2645
00> 6034
01> 2658
00> 6044
01> 2671
00> 6031
01> 2648
00> 6021
01> 2606
00> 6039
01> 2650
00> 6022
01> 2651
00> 5974
01> 2639
00> 6028
01> 2619
00> 6014
01> 2588
00> 6019
01> 2600
00> 6065
01> 2698
00> 6050
01> 2694
00> 6049
01> 2646
00> 6023
01> 2593
00> 6021
01> 2638
00> 6019
01> 2639
00> 6011
01> 2639
00> 5989
01> 2614
00> 6076
01> 2660
00> 6051
01> 2648
00> 6058
01> 2669
00> 6062
01> 2673
00> 6010
01> 2617
00> 5973
01> 2554
00> 6034
01> 2638
00> 6053
01> 2691
00> 6051
01> 2674
00> 6033
01> 2633
00> 6001
01> 2582
00> 5974
01> 2614
00> 5997
01> 2636
00> 6075
01> 2679
00> 6014
01> 2599
00> 5985
01> 2541
00> 6004
01> 2626
00> 6012
01> 2642
00> 6071
01> 2682
00> 6044
01> 2654
00> 6023
01> 2595
00> 6018
01> 2609
00> 6009
01> 2638
00> 5971
01> 2637
00> 6016
01> 2595
00> 6026
01> 2607
00> 6032
01> 2621
00> 6035
01> 2649
00> 6015
01> 2649
00> 5981
01> 2574
00> 5953
01> 2533
00> 6029
01> 2629
00> 6057
01> 2694
00> 6004
01> 2664
00> 6011
01> 2610
00> 5976
01> 2525
00> 5968
01> 2571
00> 6029
01> 2644
00> 6034
01> 2654
00> 6016
01> 2626
00> 5968
01> 2571
00> 5989
01> 2588
00> 6011
01> 2631
00> 6039
01> 2702
00> 5991
01> 2598
00> 5997
01> 2579
00> 5988
01> 2572
00> 6029
01> 2659
00> 6016
01> 2669
00> 5999
01> 2599
00> 6006
01> 2561
00> 6039
01> 2645
00> 6049
01> 2656
00> 6050
01> 2651
00> 6026
01> 2624
00> 5977
01> 2558
00> 6004
01> 2629
00> 6036
01> 2674
00> 6015
01> 2664
00> 5978
01> 2574
00> 5978
01> 2576
00> 6000
01> 2615
00> 6048
01> 2670
00> 6051
01> 2703
00> 6019
01> 2631
00> 5992
01> 2579
00> 5981
01> 2583
00> 5999
01> 2630
00> 6034
01> 2694
00> 5986
01> 2617
00> 6005
01> 2591
00> 6015
01> 2623
00> 6019
01> 2656
00> 6019
01> 2648
00> 5984
01> 2598
00> 5968
01> 2534
00> 6010
01> 2644
00> 5997
01> 2665
00> 6010
01> 2661
00> 6041
01> 2648
00> 6017
01> 2595
00> 6014
01> 2618
00> 6019
01> 2654
00> 6032
01> 2686
00> 6007
01> 2636
00> 5966
01> 2564
00> 5962
01> 2604
00> 6006
01> 2660
00> 6086
01> 2759
00> 6027
01> 2656
00> 5979
01> 2584
00> 5968
01> 2586
00> 6018
01> 2649
00> 6061
01> 2709
00> 6018
01> 2649
00> 6009
01> 2624
00> 5983
01> 2606
00> 6012
01> 2643
00> 6063
01> 2713
00> 6009
01> 2644
00> 6022
01> 2621
00> 6031
01> 2644
00> 6053
01> 2690
00> 5992
01> 2652
00> 5990
01> 2633
00> 6022
01> 2629
00> 6010
01> 2614
00> 6038
01> 2684
00> 6051
01> 2728
00> 6016
01> 2623
00> 6012
01> 2615
00> 6036
01> 2666
00> 6049
01> 2698
00> 6046
01> 2708
00> 5988
01> 2631
00> 6006
01> 2624
00> 5966
01> 2609
00> 6014
01> 2678
00> 6081
01> 2723
00> 6048
01> 2669
00> 5966
01> 2548
00> 6039
01> 2654
00> 6065
01> 2726
00> 6054
01> 2726
00> 6046
01> 2699
00> 6007
01> 2619
00> 6023
01> 2634
00> 6033
01> 2679
00> 6046
01> 2713
00> 5986
01> 2643
00> 5991
01> 2581
00> 6017
01> 2637
00> 6026
01> 2673
00> 6083
01> 2746
00> 6021
01> 2669
00> 6019
01> 2618
00> 6032
01> 2645
00> 6048
01> 2694
00> 6040
01> 2710
00> 6034
01> 2674
00> 5981
01> 2604
00> 6006
01> 2639
00> 6048
01> 2700
00> 6073
01> 2739
00> 6064
01> 2681
00> 6013
01> 2606
00> 6043
01> 2649
00> 6069
01> 2702
00> 6034
01> 2698
00> 5986
01> 2611
00> 6003
01> 2605
00> 6001
01> 2636
00> 6057
01> 2688
00> 6066
01> 2728
00> 6038
01> 2669
00> 6020
01> 2621
00> 6028
01> 2651
00> 6041
01> 2673
00> 6027
01> 2669
00> 6014
01> 2658
00> 6000
01> 2600
00> 5966
01> 2600
00> 6056
01> 2691
00> 6079
01> 2740
00> 6049
01> 2681
00> 6016
01> 2587
00> 5994
01> 2601
00> 6063
01> 2705
00> 6061
01> 2729
00> 5999
01> 2659
00> 6004
01> 2571
00> 6012
01> 2609
00> 6024
01> 2702
00> 6061
01> 2714
00> 6043
01> 2677
00> 6039
01> 2637
00> 6028
01> 2626
00> 6037
01> 2688
00> 6035
01> 2720
00> 6023
01> 2633
00> 6024
01> 2608
00> 6028
01> 2640
00> 6026
01> 2681
00> 6043
01> 2700
00> 6061
01> 2689
00> 6015
01> 2601
00> 6029
01> 2656
00> 6061
01> 2725
00> 6039
01> 2698
00> 5978
01> 2633
00> 6022
01> 2610
00> 6025
01> 2632
00> 6054
01> 2690
00> 6058
01> 2716
00> 6023
01> 2639
00> 6000
01> 2594
00> 6031
01> 2636
00> 6068
01> 2710
00> 6069
01> 2719
00> 6004
01> 2633
00> 6017
01> 2622
00> 6029
01> 2651
00> 6054
01> 2708
00> 6046
01> 2710
00> 6028
01> 2656
00> 5953
01> 2550
00> 6009
01> 2604
00> 6057
01> 2702
00> 6057
01> 2744
00> 6041
01> 2709
00> 5998
01> 2608
00> 5995
01> 2614
00> 6028
01> 2669
00> 6019
01> 2689
00> 6021
01> 2678
00> 6009
01> 2623
00> 6024
01> 2616
00> 6006
01> 2666
00> 6043
01> 2709
00> 6026
01> 2658
00> 5969
01> 2574
00> 6008
01> 2646
00> 6072
01> 2736
00> 6075
01> 2756
00> 6005
01> 2688
00> 6010
01> 2644
00> 6039
01> 2661
00> 6059
01> 2720
00> 6037
01> 2708
00> 6015
01> 2649
00> 5971
01> 2549
00> 5918
01> 2547
00> 5998
01> 2629
00> 6076
01> 2722
00> 6024
01> 2623
00> 5968
01> 2526
00> 5979
01> 2579
00> 5997
01> 2627
00> 6001
01> 2650
00> 5999
01> 2639
00> 5984
01> 2591
00> 6005
01> 2609
00> 6041
01> 2668
00> 6026
01> 2706
00> 6001
01> 2639
00> 5993
01> 2605
00> 5989
01> 2604
00> 6027
01> 2649
00> 6034
01> 2689
00> 5990
01> 2643
00> 5916
01> 2518
00> 5968
01> 2577
00> 6041
01> 2677
00> 6050
01> 2703
00> 6013
01> 2649
00> 5988
01> 2601
00> 5965
01> 2576
00> 5981
01> 2615
00> 6044
01> 2697
00> 6013
01> 2649
00> 5963
01> 2580
00> 5956
01> 2556
00> 6032
01> 2648
00> 6031
01> 2659
00> 6009
01> 2643
00> 5973
01> 2570
00> 5967
01> 2546
00> 6035
01> 2656
00> 6039
01> 2674
00> 6018
01> 2641
00> 5955
01> 2531
00> 5980
01> 2581
00> 6020
01> 2641
00> 6028
01> 2699
00> 5979
01> 2596
00> 5996
01> 2583
00> 5974
01> 2583
00> 6029
01> 2643
00> 6026
01> 2664
00> 5993
01> 2623
00> 5984
01> 2572
00> 5981
01> 2580
00> 5994
01> 2621
00> 6016
01> 2661
00> 6043
01> 2662
00> 5975
01> 2561
00> 5969
01> 2583
00> 5989
01> 2651
00> 6046
01> 2664
00> 6025
01> 2645
00> 6000
01> 2586
00> 6020

00> 6044
01> 2643
00> 6030
01> 2675
00> 6027
01> 2646
00> 5978
01> 2549
00> 5964
01> 2544
00> 6028
01> 2651
00> 6068
01> 2721
00> 6021
01> 2627
00> 5958
01> 2499
00> 5934
01> 2511
00> 5968
01> 2606
00> 6064
01> 2709
00> 6071
01> 2718
00> 6047
01> 2659
00> 6011
01> 2655
00> 6016
01> 2659
00> 6073
01> 2722
00> 6081
01> 2689
00> 6032
01> 2613
00> 6020
01> 2606
00> 6041
01> 2662
00> 6040
01> 2658
00> 6039
01> 2655
00> 5998
01> 2587
00> 6003
01> 2570
00> 6061
01> 2676
00> 6057
01> 2697
00> 6033
01> 2641
00> 5969
01> 2551
00> 6016
01> 2605
00> 5994
01> 2629
00> 6006
01> 2639
00> 6065
01> 2691
00> 6026
01> 2616
00> 6031
01> 2623
00> 6033
01> 2653
00> 6053
01> 2703
00> 6049
01> 2704
00> 6022
01> 2599
00> 6043
01> 2599
00> 6036
01> 2639
00> 6018
01> 2660
00> 6063
01> 2705
00> 6033
01> 2630
00> 6020
01> 2614
00> 6038
01> 2659
00> 6061
01> 2708
00> 6029
01> 2658
00> 6001
01> 2600
00> 5954
01> 2559
00> 6026
01> 2641
00> 6088
01> 2731
00> 6064
01> 2717
00> 6019
01> 2618
00> 6017
01> 2604
00> 6013
01> 2647
00> 6036
01> 2729
00> 6063
01> 2698
00> 6026
01> 2600
00> 6021
01> 2616
00> 6034
01> 2663
00> 6055
01> 2701
00> 6047
01> 2684
00> 6015
01> 2628
00> 6031
01> 2641
00> 6038
01> 2684
00> 6042
01> 2706
00> 6091
01> 2718
00> 6017
01> 2593
00> 6014
01> 2585
00> 6071
01> 2708
00> 6072
01> 2736
00> 6024
01> 2699
00> 6011
01> 2631
00> 6001
01> 2603
00> 6030
01> 2680
00> 6051
01> 2729
00> 6071
01> 2712
00> 6021
01> 2613
00> 6031
01> 2624
00> 6033
01> 2686
00> 6063
01> 2735
00> 6060
01> 2714
00> 5998
01> 2588
00> 6002
01> 2588
00> 6036
01> 2689
00> 6066
01> 2743
00> 6070
01> 2730
00> 6056
01> 2667
00> 6033
01> 2656
00> 6063
01> 2689
00> 6088
01> 2746
00> 6057
01> 2706
00> 6019
01> 2633
00> 6006
01> 2625
00> 6057
01> 2730
00> 6081
01> 2738
00> 6053
01> 2706
00> 5971
01> 2620
00> 6004
01> 2599
00> 6070
01> 2696
00> 6071
01> 2732
00> 6068
01> 2729
00> 6032
01> 2674
00> 6034
01> 2663
00> 6046
01> 2683
00> 6065
01> 2731
00> 6083
01> 2752
00> 6024
01> 2638
00> 6001
01> 2609
00> 6043
01> 2721
00> 6079
01> 2746
00> 6052
01> 2709
00> 6030
01> 2646
00> 6043
01> 2651
00> 6016
01> 2691
00> 6072
01> 2729
00> 6081
01> 2748
00> 6038
01> 2647
00> 6041
01> 2632
00> 6063
01> 2701
00> 6099
01> 2757
00> 6052
01> 2713
00> 6031
01> 2653
00> 6021
01> 2654
00> 6043
01> 2701
00> 6076
01> 2744
00> 6049
01> 2707
00> 6014
01> 2618
00> 6061
01> 2679
00> 6059
01> 2709
00> 6069
01> 2751
00> 6044
01> 2720
00> 5989
01> 2599
00> 6030
01> 2632
00> 6043
01> 2679
00> 6037
01> 2704
00> 6072
01> 2719
00> 6040
01> 2659
00> 6012
01> 2618
00> 6013
01> 2655
00> 6067
01> 2736
00> 6054
01> 2721
00> 6029
01> 2652
00> 6026
01> 2654
00> 6046
01> 2690
00> 6054
01> 2740
00> 6035
01> 2701
00> 5993
01> 2615
00> 6014
01> 2653
00> 6036
01> 2706
00> 6034
01> 2730
00> 6049
01> 2742
00> 5981
01> 2590
00> 5999
01> 2619
00> 6062
01> 2709
00> 6064
01> 2746
00> 6000
01> 2686
00> 5966
01> 2588
00> 6026
01> 2651
00> 6024
01> 2698
00> 6048
01> 2738
00> 6042
01> 2728
00> 6012
01> 2658
00> 5998
01> 2644
00> 5979
01> 2663
00> 6029
01> 2709
00> 6034
01> 2713
00> 5973
01> 2610
00> 5983
01> 2623
00> 6002
01> 2681
00> 6016
01> 2737
00> 6000
01> 2701
00> 5929
01> 2589
00> 5959
01> 2629
00> 5992
01> 2681
00> 6024
01> 2723
00> 5993
01> 2691
00> 5981
01> 2654
00> 5975
01> 2644
00> 5973
01> 2657
00> 6003
01> 2733
00> 6023
01> 2728
00> 5984
01> 2643
00> 5978
01> 2651
00> 5987
01> 2684
00> 5991
01> 2711
00> 6013
01> 2730
00> 5968
01> 2646
00> 5958
01> 2624
00> 5989
01> 2683
00> 5994
01> 2718
00> 5988
01> 2712
00> 5957
01> 2639
00> 5942
01> 2621
00> 5951
01> 2671
00> 5970
01> 2721
00> 5976
01> 2711
00> 5944
01> 2642
00> 5933
01> 2614
00> 5960
01> 2670
00> 5976
01> 2717
00> 5953
01> 2681
00> 5935
01> 2653
00> 5941
01> 2616
00> 5971
01> 2668
00> 5990
01> 2721
00> 5977
01> 2709
00> 5941
01> 2638
00> 5933
01> 2626
00> 5949
01> 2674
00> 5978
01> 2721
00> 5968
01> 2708
00> 5929
01> 2633
00> 5926
01> 2616
00> 5955
01> 2678
00> 5973
01> 2728
00> 5965
01> 2723
00> 5926
01> 2631
00> 5915
01> 2611
00> 5927
01> 2644
00> 5951
01> 2689
00> 5960
01> 2706
00> 5929
01> 2644
00> 5920
01> 2619
00> 5938
01> 2671
00> 5963
01> 2723
00> 5956
01> 2704
00> 5914
01> 2614
00> 5904
01> 2595
00> 5911
01> 2633
00> 5946
01> 2686
00> 5978
01> 2728
00> 5930
01> 2639
00> 5912
01> 2611
00> 5936
01> 2660
00> 5948
01> 2689
00> 5938
01> 2682
00> 5939
01> 2646
00> 5913
01> 2587
00> 5931
01> 2645
00> 5959
01> 2704
00> 5955
01> 2702
00> 5918
01> 2625
00> 5904
01> 2594
00> 5921
01> 2642
00> 5939
01> 2687
00> 5940
01> 2686
00> 5929
01> 2624
00> 5913
01> 2589
00> 5925
01> 2626
00> 5949
01> 2690
00> 5938
01> 2683
00> 5904
01> 2591
00> 5908
01> 2572
00> 5943
01> 2637
00> 5971
01> 2695
00> 5969
01> 2699
00> 5918
01> 2603
00> 5904
01> 2574
00> 5934
01> 2641
00> 5948
01> 2684
00> 5938
01> 2667
00> 5918
01> 2609
00> 5889
01> 2579
00> 5928
01> 2651
00> 5953
01> 2699
00> 5938
01> 2673
00> 5898
01> 2583
00> 5898
01> 2561
00> 5928
01> 2632
00> 5946
01> 2679
00> 5947
01> 2680
00> 5906
01> 2594
00> 5886
01> 2559
00> 5901
01> 2606
00> 5932
01> 2672
00> 5938
01> 2690
00> 5905
01> 2608
00> 5896
01> 2583
00> 5914
01> 2629
00> 5933
01> 2674
00> 5936
01> 2679
00> 5899
01> 2601
00> 5887
01> 2573
00> 5919
01> 2627
00> 5945
01> 2688
00> 5951
01> 2701
00> 5902
01> 2609
00> 5888
01> 2580
00> 5914
01> 2633
00> 5944
01> 2693
00> 5948
01> 2697
00> 5909
01> 2611
00> 5886
01> 2570
00> 5908
01> 2629
00> 5930
01> 2682
00> 5934
01> 2679
00> 5895
01> 2594
00> 5883
01> 2559
00> 5909
01> 2620
00> 5935
01> 2673
00> 5938
01> 2679
00> 5903
01> 2608
00> 5884
01> 2569
00> 5906
01> 2629
00> 5933
01> 2687
00> 5936
01> 2689
00> 5894
01> 2600
00> 5889
01> 2570
00> 5911
01> 2623
00> 5933
01> 2678
00> 5933
01> 2678
00> 5894
01> 2593
00> 5878
01> 2554
00> 5904
01> 2616
00> 5938
01> 2674
00> 5936
01> 2671
00> 5895
01> 2590
00> 5882
01> 2557
00> 5911
01> 2613
00> 5938
01> 2673
00> 5936
01> 2674
00> 5900
01> 2590
00> 5884
01> 2553
00> 5911
01> 2608
00> 5935
01> 2663
00> 5941
01> 2678
00> 5908
01> 2598
00> 5894
01> 2559
00> 5914
01> 2608
00> 5931
01> 2658
00> 5933
01> 2665
00> 5891
01> 2588
00> 5886
01> 2558
00> 5921
01> 2619
00> 5941
01> 2667
00> 5941
01> 2673
00> 5901
01> 2588
00> 5888
01> 2549
00> 5919
01> 2610
00> 5943
01> 2677
00> 5944
01> 2689
00> 5898
01> 2593
00> 5881
01> 2554
00> 5908
01> 2614
00> 5930
01> 2674
00> 5934
01> 2683
00> 5901
01> 2601
00> 5879
01> 2556
00> 5898
01> 2604
00> 5928
01> 2668
00> 5943
01> 2694
00> 5904
01> 2611
00> 5882
01> 2563
00> 5897
01> 2609
00> 5929
01> 2663
00> 5933
01> 2679
00> 5891
01> 2598
00> 5879
01> 2561
00> 5899
01> 2613
00> 5911
01> 2649
00> 5926
01> 2667
00> 5894
01> 2591
00> 5873
01> 2557
00> 5899
01> 2611
00> 5924
01> 2663
00> 5919
01> 2661
00> 5879
01> 2573
00> 5864
01> 2534
00> 5888
01> 2591
00> 5909
01> 2649
00> 5919
01> 2663
00> 5891
01> 2589
00> 5868
01> 2543
00> 5898
01> 2601
00> 5922
01> 2658
00> 5932
01> 2671
00> 5904
01> 2598
00> 5872
01> 2547
00> 5886
01> 2591
00> 5925
01> 2659
00> 5941
01> 2683
00> 5901
01> 2605
00> 5873
01> 2546
00> 5886
01> 2588
00> 5910
01> 2646
00> 5924
01> 2666
00> 5891
01> 2583
00> 5874
01> 2544
00> 5897
01> 2594
00> 5923
01> 2649
00> 5928
01> 2658
00> 5886
01> 2575
00> 5873
01> 2531
00> 5893
01> 2578
00> 5928
01> 2645
00> 5942
01> 2668
00> 5896
01> 2586
00> 5868
01> 2534
00> 5893
01> 2594
00> 5920
01> 2653
00> 5925
01> 2661
00> 5883
01> 2585
00> 5864
01> 2534
00> 5883
01> 2577
00> 5907
01> 2636
00> 5924
01> 2656
00> 5898
01> 2586
00> 5868
01> 2533
00> 5886
01> 2579
00> 5913
01> 2643
00> 5926
01> 2664
00> 5892
01> 2592
00> 5870
01> 2538
00> 5889
01> 2580
00> 5916
01> 2648
00> 5925
01> 2672
00> 5899
01> 2604
00> 5870
01> 2548
00> 5888
01> 2590
00> 5909
01> 2638
00> 5918
01> 2654
00> 5884
01> 2580
00> 5866
01> 2528
00> 5888
01> 2582
00> 5919
01> 2650
00> 5928
01> 2671
00> 5891
01> 2586
00> 5864
01> 2531
00> 5880
01> 2578
00> 5908
01> 2639
00> 5923
01> 2666
00> 5890
01> 2590
00> 5860
01> 2526
00> 5883
01> 2574
00> 5914
01> 2634
00> 5925
01> 2661
00> 5894
01> 2597
00> 5873
01> 2539
00> 5888
01> 2580
00> 5914
01> 2644
00> 5926
01> 2673
00> 5884
01> 2596
00> 5854
01> 2533
00> 5873
01> 2576
00> 5907
01> 2639
00> 5918
01> 2663
00> 5887
01> 2589
00> 5868
01> 2546
00> 5888
01> 2588
00> 5910
01> 2638
00> 5919
01> 2664
00> 5891
01> 2591
00> 5866
01> 2528
00> 5886
01> 2583
00> 5912
01> 2646
00> 5922
01> 2674
00> 5894
01> 2606
00> 5872
01> 2538
00> 5899
01> 2589
00> 5924
01> 2656
00> 5924
01> 2668
00> 5879
01> 2589
00> 5856
01> 2533
00> 5874
01> 2578
00> 5898
01> 2639
00> 5914
01> 2666
00> 5884
01> 2592
00> 5865
01> 2543
00> 5887
01> 2593
00> 5914
01> 2660
00> 5929
01> 2689
00> 5897
01> 2618
00> 5867
01> 2543
00> 5884
01> 2575
00> 5911
01> 2636
00> 5925
01> 2676
00> 5898
01> 2608
00> 5866
01> 2555
00> 5879
01> 2593
00> 5909
01> 2656
00> 5918
01> 2680
00> 5879
01> 2604
00> 5854
01> 2549
00> 5889
01> 2604
00> 5918
01> 2668
00> 5924
01> 2686
00> 5892
01> 2609
00> 5859
01> 2543
00> 5869
01> 2579
00> 5894
01> 2636
00> 5919
01> 2675
00> 5898
01> 2618
00> 5868
01> 2562
00> 5880
01> 2591
00> 5916
01> 2658
00> 5931
01> 2692
00> 5900
01> 2623
00> 5874
01> 2562
00> 5889
01> 2591
00> 5917
01> 2655
00> 5931
01> 2690
00> 5900
01> 2627
00> 5864
01> 2561
00> 5878
01> 2601
00> 5919
01> 2663
00> 5935
01> 2686
00> 5898
01> 2622
00> 5865
01> 2559
00> 5885
01> 2604
00> 5915
01> 2668
00> 5931
01> 2694
00> 5904
01> 2629
00> 5873
01> 2559
00> 5894
01> 2607
00> 5933
01> 2688
00> 5942
01> 2719
00> 5904
01> 2644
00> 5871
01> 2567
00> 5893
01> 2611
00> 5918
01> 2674
00> 5934
01> 2702
00> 5904
01> 2630
00> 5872
01> 2563
00> 5896
01> 2608
00> 5931
01> 2679
00> 5946
01> 2713
00> 5914
01> 2641
00> 5889
01> 2578
00> 5906
01> 2620
00> 5924
01> 2663
00> 5936
01> 2691
00> 5909
01> 2638
00> 5876
01> 2565
00> 5883
01> 2598
00> 5915
01> 2667
00> 5934
01> 2695
00> 5906
01> 2630
00> 5878
01> 2566
00> 5901
01> 2616
00> 5931
01> 2685
00> 5940
01> 2709
00> 5904
01> 2642
00> 5871
01> 2566
00> 5883
01> 2598
00> 5917
01> 2666
00> 5928
01> 2698
00> 5901
01> 2646
00> 5866
01> 2578
00> 5878
01> 2609
00> 5919
01> 2672
00> 5936
01> 2705
00> 5908
01> 2645
00> 5875
01> 2569
00> 5882
01> 2599
00> 5906
01> 2661
00> 5919
01> 2689
00> 5896
01> 2632
00> 5869
01> 2569
00> 5878
01> 2599
00> 5911
01> 2661
00> 5929
01> 2699
00> 5900
01> 2629
00> 5866
01> 2552
00> 5876
01> 2589
00> 5907
01> 2668
00> 5913
01> 2698
00> 5882
01> 2626
00> 5855
01> 2550
00> 5874
01> 2586
00> 5903
01> 2657
00> 5922
01> 2696
00> 5891
01> 2642
00> 5861
01> 2564
00> 5874
01> 2593
00> 5907
01> 2661
00> 5930
01> 2703
00> 5906
01> 2649
00> 5872
01> 2575
00> 5881
01> 2597
00> 5910
01> 2661
00> 5935
01> 2700
00> 5907
01> 2636
00> 5867
01> 2561
00> 5877
01> 2599
00> 5910
01> 2672
00> 5925
01> 2699
00> 5900
01> 2636
00> 5879
01> 2570
00> 5879
01> 2598
00> 5906
01> 2670
00> 5931
01> 2711
00> 5903
01> 2656
00> 5864
01> 2578
00> 5882
01> 2601
00> 5911
01> 2663
00> 5920
01> 2690
00> 5892
01> 2633
00> 5856
01> 2558
00> 5874
01> 2599
00> 5909
01> 2668
00> 5926
01> 2704
00> 5891
01> 2646
00> 5854
01> 2571
00> 5877
01> 2597
00> 5913
01> 2663
00> 5921
01> 2699
00> 5889
01> 2641
00> 5861
01> 2573
00> 5874
01> 2601
00> 5910
01> 2671
00> 5931
01> 2713
00> 5905
01> 2657
00> 5865
01> 2569
00> 5869
01> 2592
00> 5909
01> 2669
00> 5933
01> 2713
00> 5903
01> 2647
00> 5863
01> 2563
00> 5874
01> 2590
00> 5908
01> 2663
00> 5931
01> 2708
00> 5903
01> 2651
00> 5873
01> 2586
00> 5878
01> 2608
00> 5900
01> 2664
00> 5926
01> 2702
00> 5906
01> 2657
00> 5869
01> 2579
00> 5880
01> 2605
00> 5919
01> 2673
00> 5937
01> 2723
00> 5912
01> 2671
00> 5864
01> 2587
00> 5888
01> 2603
00> 5920
01> 2682
00> 5940
01> 2728
00> 5914
01> 2679
00> 5876
01> 2589
00> 5880
01> 2611
00> 5908
01> 2674
00> 5926
01> 2712
00> 5906
01> 2659
00> 5872
01> 2585
00> 5874
01> 2611
00> 5890
01> 2669
00> 5935
01> 2708
00> 5908
01> 2657
00> 5859
01> 2561
00> 5878
01> 2617
00> 5906
01> 2674
00> 5914
01> 2704
00> 5909
01> 2654
00> 5871
01> 2590
00> 5877
01> 2616
00> 5925
01> 2674
00> 5944
01> 2715
00> 5921
01> 2672
00> 5873
01> 2571
00> 5886
01> 2592
00> 5919
01> 2676
00> 5942
01> 2728
00> 5925
01> 2679
00> 5886
01> 2593
00> 5891
01> 2609
00> 5918
01> 2679
00> 5939
01> 2708
00> 5919
01> 2666
00> 5895
01> 2614
00> 5896
01> 2628
00> 5919
01> 2691
00> 5960
01> 2738
00> 5929
01> 2676
00> 5876
01> 2593
00> 5896
01> 2625
00> 5928
01> 2678
00> 5953
01> 2721
00> 5920
01> 2664
00> 5891
01> 2590
00> 5902
01> 2637
00> 5930
01> 2684
00> 5956
01> 2729
00> 5931
01> 2678
00> 5898
01> 2599
00> 5902
01> 2620
00> 5931
01> 2688
00> 5951
01> 2732
00> 5936
01> 2698
00> 5909
01> 2639
00> 5918
01> 2652
00> 5939
01> 2705
00> 5968
01> 2751
00> 5957
01> 2718
00> 5921
01> 2636
00> 5924
01> 2649
00> 5949
01> 2716
00> 5968
01> 2770
00> 5946
01> 2699
00> 5898
01> 2609
00> 5917
01> 2640
00> 5954
01> 2718
00> 5973
01> 2757
00> 5952
01> 2721
00> 5921
01> 2638
00> 5924
01> 2651
00> 5957
01> 2716
00> 5980
01> 2770
00> 5962
01> 2731
00> 5933
01> 2664
00> 5935
01> 2691
00> 5966
01> 2719
00> 5986
01> 2759
00> 5961
01> 2713
00> 5928
01> 2643
00> 5931
01> 2669
00> 5970
01> 2752
00> 5996
01> 2781
00> 5970
01> 2732
00> 5937
01> 2654
00> 5943
01> 2674
00> 5971
01> 2736
00> 5994
01> 2783
00> 5988
01> 2753
00> 5949
01> 2668
00> 5953
01> 2684
00> 5976
01> 2751
00> 5994
01> 2797
00> 5980
01> 2756
00> 5941
01> 2653
00> 5943
01> 2654
00> 5979
01> 2731
00> 6005
01> 2788
00> 5989
01> 2753
00> 5944
01> 2664
00> 5950
01> 2686
00> 5980
01> 2753
00> 6011
01> 2800
00> 5987
01> 2758
00> 5941
01> 2665
00> 5944
01> 2669
00> 5976
01> 2733
00> 5998
01> 2788
00> 5989
01> 2756
00> 5961
01> 2678
00> 5964
01> 2687
00> 5985
01> 2756
00> 6013
01> 2806
00> 6001
01> 2774
00> 5965
01> 2692
00> 5959
01> 2681
00> 5981
01> 2751
00> 6013
01> 2807
00> 5998
01> 2765
00> 5958
01> 2670
00> 5963
01> 2677
00> 5994
01> 2753
00> 6027
01> 2809
00> 6007
01> 2765
00> 5960
01> 2665
00> 5957
01> 2664
00> 5989
01> 2743
00> 6018
01> 2806
00> 6003
01> 2769
00> 5961
01> 2678
00> 5969
01> 2691
00> 6001
01> 2752
00> 6019
01> 2791
00> 6006
01> 2765
00> 5970
01> 2679
00> 5970
01> 2687
00> 5996
01> 2754
00> 6022
01> 2804
00> 6002
01> 2772
00> 5961
01> 2688
00> 5973
01> 2699
00> 6008
01> 2759
00> 6020
01> 2801
00> 5999
01> 2768
00> 5963
01> 2677
00> 5966
01> 2682
00> 5998
01> 2746
00> 6021
01> 2789
00> 6004
01> 2758
00> 5963
01> 2674
00> 5965
01> 2679
00> 5991
01> 2746
00> 6019
01> 2801
00> 6004
01> 2765
00> 5966
01> 2678
00> 5971
01> 2683
00> 6000
01> 2753
00> 6028
01> 2808
00> 6023
01> 2793
00> 5984
01> 2710
00> 5978
01> 2706
00> 6001
01> 2756
00> 6016
01> 2807
00> 6008
01> 2781
00> 5972
01> 2711
00> 5976
01> 2716
00> 6008
01> 2776
00> 6031
01> 2821
00> 6013
01> 2786
00> 5971
01> 2716
00> 5979
01> 2714
00> 6009
01> 2766
00> 6033
01> 2814
00> 6013
01> 2794
00> 5975
01> 2709
00> 5984
01> 2705
00> 6014
01> 2774
00> 6045
01> 2831
00> 6033
01> 2796
00> 5992
01> 2709
00> 5999
01> 2714
00> 6024
01> 2774
00> 6050
01> 2827
00> 6027
01> 2805
00> 5996
01> 2718
00> 5999
01> 2707
00> 6021
01> 2771
00> 6044
01> 2825
00> 6042
01> 2813
00> 5997
01> 2720
00> 5984
01> 2715
00> 6028
01> 2786
00> 6049
01> 2828
00> 6032
01> 2802
00> 5993
01> 2723
00> 5989
01> 2721
00> 6027
01> 2793
00> 6051
01> 2844
00> 6035
01> 2813
00> 5990
01> 2704
00> 5988
01> 2698
00> 6024
01> 2770
00> 6058
01> 2833
00> 6036
01> 2816
00> 5993
01> 2708
00> 5990
01> 2705
00> 6017
01> 2768
00> 6042
01> 2818
00> 6038
01> 2807
00> 5998
01> 2729
00> 5993
01> 2731
00> 6028
01> 2793
00> 6052
01> 2838
00> 6033
01> 2809
00> 5990
01> 2718
00> 5981
01> 2704
00> 5999
01> 2765
00> 6026
01> 2819
00> 6026
01> 2796
00> 5999
01> 2721
00> 5999
01> 2719
00> 6026
01> 2777
00> 6054
01> 2836
00> 6026
01> 2821
00> 5984
01> 2719
00> 5998
01> 2719
00> 6020
01> 2782
00> 6041
01> 2839
00> 6030
01> 2788
00> 5988
01> 2706
00> 5986
01> 2708
00> 6013
01> 2766
00> 6042
01> 2818
00> 6023
01> 2801
00> 5984
01> 2713
00> 5988
01> 2702
00> 6013
01> 2767
00> 6039
01> 2845
00> 6048
01> 2819
00> 5997
01> 2725
00> 5994
01> 2706
00> 6006
01> 2764
00> 6033
01> 2816
00> 6026
01> 2799
00> 5989
01> 2711
00> 5978
01> 2696
00> 6008
01> 2756
00> 6030
01> 2824
00> 6019
01> 2804
00> 5981
01> 2700
00> 5981
01> 2696
00> 6002
01> 2746
00> 6026
01> 2794
00> 6025
01> 2783
00> 5992
01> 2703
00> 5984
01> 2690
00> 6009
01> 2753
00> 6031
01> 2809
00> 6025
01> 2797
00> 5981
01> 2708
00> 5978
01> 2682
00> 6013
01> 2757
00> 6044
01> 2819
00> 6036
01> 2806
00> 5999
01> 2716
00> 5989
01> 2711
00> 6014
01> 2769
00> 6044
01> 2823
00> 6044
01> 2820
00> 6008
01> 2738
00> 6004
01> 2732
00> 6026
01> 2794
00> 6056
01> 2824
00> 6051
01> 2818
00> 6010
01> 2736
00> 6009
01> 2733
00> 6049
01> 2810
00> 6078
01> 2867
00> 6073
01> 2846
00> 6051
01> 2768
00> 6036
01> 2756
00> 6068
01> 2827
00> 6102
01> 2895
00> 6110
01> 2909
00> 6083
01> 2862
00> 6076
01> 2871
00> 6108
01> 2928
00> 6139
01> 3018
00> 6144
01> 3051
00> 6123
01> 2996
00> 6138
01> 3026
00> 6195
01> 3163
00> 6262
01> 3299
00> 6285
01> 3366
00> 6273
01> 3349
00> 6292
01> 3408
00> 6356
01> 3525
00> 6408
01> 3631
00> 6418
01> 3671
00> 6389
01> 3599
00> 6396
01> 3607
00> 6425
01> 3664
00> 6456
01> 3719
00> 6441
01> 3705
00> 6397
01> 3608
00> 6383
01> 3584
00> 6403
01> 3626
00> 6418
01> 3663
00> 6414
01> 3644
00> 6355
01> 3534
00> 6334
01> 3476
00> 6347
01> 3518
00> 6374
01> 3562
00> 6369
01> 3530
00> 6310
01> 3416
00> 6291
01> 3379
00> 6307
01> 3413
00> 6322
01> 3438
00> 6310
01> 3428
00> 6268
01> 3328
00> 6263
01> 3297
00> 6277
01> 3335
00> 6302
01> 3384
00> 6279
01> 3352
00> 6243
01> 3245
00> 6224
01> 3218
00> 6232
01> 3277
00> 6265
01> 3309
00> 6249
01> 3278
00> 6198
01> 3176
00> 6194
01> 3127
00> 6213
01> 3197
00> 6216
01> 3224
00> 6235
01> 3215
00> 6211
01> 3133
00> 6166
01> 3081
00> 6173
01> 3099
00> 6209
01> 3156
00> 6218
01> 3164
00> 6163
01> 3060
00> 6142
01> 3018
00> 6156
01> 3061
00> 6173
01> 3120
00> 6169
01> 3090
00> 6111
01> 2988
00> 6114
01> 2952
00> 6118
01> 2995
00> 6134
01> 3046
00> 6164
01> 3060
00> 6093
01> 2952
00> 6071
01> 2893
00> 6107
01> 2965
00> 6121
01> 2996
00> 6129
01> 2998
00> 6072
01> 2889
00> 6091
01> 2918
00> 6079
01> 2939
00> 6113
01> 3008
00> 6144
01> 3001
00> 6084
01> 2879
00> 6064
01> 2848
00> 6088
01> 2919
00> 6104
01> 2966
00> 6099
01> 2948
00> 6079

00> 6065
01> 2864
00> 6060
01> 2883
00> 6128
01> 2974
00> 6126
01> 2947
00> 6086
01> 2867
00> 6056
01> 2823
00> 6095
01> 2909
00> 6102
01> 2936
00> 6096
01> 2903
00> 6071
01> 2849
00> 6073
01> 2842
00> 6073
01> 2866
00> 6104
01> 2951
00> 6103
01> 2938
00> 6051
01> 2799
00> 6005
01> 2756
00> 6063
01> 2859
00> 6120
01> 2941
00> 6103
01> 2941
00> 6057
01> 2819
00> 6057
01> 2793
00> 6068
01> 2844
00> 6101
01> 2918
00> 6099
01> 2895
00> 6074
01> 2849
00> 6049
01> 2811
00> 6058
01> 2822
00> 6120
01> 2904
00> 6091
01> 2896
00> 6036
01> 2827
00> 6019
01> 2771
00> 6081
01> 2836
00> 6090
01> 2872
00> 6093
01> 2898
00> 6089
01> 2836
00> 6071
01> 2784
00> 6078
01> 2829
00> 6099
01> 2916
00> 6100
01> 2922
00> 6037
01> 2799
00> 6054
01> 2775
00> 6085
01> 2815
00> 6124
01> 2905
00> 6120
01> 2922
00> 6077
01> 2823
00> 6035
01> 2767
00> 6064
01> 2843
00> 6090
01> 2883
00> 6095
01> 2885
00> 6068
01> 2809
00> 6064
01> 2796
00> 6054
01> 2817
00> 6106
01> 2893
00> 6129
01> 2926
00> 6059
01> 2853
00> 6019
01> 2762
00> 6085
01> 2829
00> 6119
01> 2886
00> 6111
01> 2925
00> 6054
01> 2811
00> 6026
01> 2743
00> 6062
01> 2814
00> 6123
01> 2961
00> 6086
01> 2861
00> 6077
01> 2818
00> 6031
01> 2780
00> 6090
01> 2863
00> 6081
01> 2883
00> 6080
01> 2861
00> 6073
01> 2812
00> 6054
01> 2808
00> 6061
01> 2858
00> 6122
01> 2873
00> 6116
01> 2879
00> 6054
01> 2806
00> 5975
01> 2764
00> 6059
01> 2828
00> 6116
01> 2890
00> 6091
01> 2881
00> 6060
01> 2826
00> 6049
01> 2771
00> 6066
01> 2836
00> 6088
01> 2882
00> 6103
01> 2905
00> 6069
01> 2832
00> 6031
01> 2763
00> 6040
01> 2819
00> 6073
01> 2885
00> 6089
01> 2873
00> 6035
01> 2801
00> 6046
01> 2770
00> 6056
01> 2815
00> 6105
01> 2901
00> 6099
01> 2895
00> 6046
01> 2800
00> 6043
01> 2783
00> 6061
01> 2846
00> 6092
01> 2881
00> 6077
01> 2882
00> 6071
01> 2834
00> 6045
01> 2769
00> 6083
01> 2822
00> 6098
01> 2888
00> 6093
01> 2883
00> 6049
01> 2789
00> 6044
01> 2758
00> 6078
01> 2823
00> 6098
01> 2897
00> 6096
01> 2883
00> 6066
01> 2799
00> 6031
01> 2745
00> 6071
01> 2860
00> 6065
01> 2865
00> 6108
01> 2871
00> 6059
01> 2769
00> 6005
01> 2699
00> 6109
01> 2871
00> 6136
01> 2899
00> 6100
01> 2866
00> 6042
01> 2775
00> 6045
01> 2761
00> 6098
01> 2839
00> 6111
01> 2891
00> 6079
01> 2879
00> 6053
01> 2822
00> 6076
01> 2771
00> 6071
01> 2799
00> 6093
01> 2873
00> 6123
01> 2897
00> 6085
01> 2823
00> 6053
01> 2750
00> 6064
01> 2793
00> 6094
01> 2874
00> 6093
01> 2864
00> 6068
01> 2796
00> 6063
01> 2777
00> 6086
01> 2833
00> 6104
01> 2853
00> 6108
01> 2869
00> 6069
01> 2804
00> 6017
01> 2771
00> 6036
01> 2821
00> 6099
01> 2861
00> 6133
01> 2884
00> 6103
01> 2804
00> 6066
01> 2767
00> 6073
01> 2809
00> 6109
01> 2881
00> 6110
01> 2869
00> 6043
01> 2772
00> 5998
01> 2741
00> 6080
01> 2799
00> 6134
01> 2893
00> 6089
01> 2859
00> 6074
01> 2837
00> 6075
01> 2778
00> 6094
01> 2820
00> 6111
01> 2877
00> 6124
01> 2901
00> 6069
01> 2804
00> 6037
01> 2753
00> 6082
01> 2853
00> 6134
01> 2893
00> 6130
01> 2880
00> 6073
01> 2788
00> 6064
01> 2750
00> 6123
01> 2839
00> 6128
01> 2870
00> 6130
01> 2886
00> 6082
01> 2808
00> 6041
01> 2736
00> 6088
01> 2791
00> 6138
01> 2883
00> 6136
01> 2906
00> 6066
01> 2779
00> 6055
01> 2729
00> 6102
01> 2793
00> 6103
01> 2862
00> 6119
01> 2870
00> 6070
01> 2794
00> 6066
01> 2751
00> 6090
01> 2804
00> 6134
01> 2877
00> 6131
01> 2876
00> 6093
01> 2796
00> 6050
01> 2741
00> 6056
01> 2769
00> 6116
01> 2848
00> 6123
01> 2866
00> 6071
01> 2764
00> 6034
01> 2683
00> 6066
01> 2756
00> 6123
01> 2863
00> 6161
01> 2904
00> 6103
01> 2799
00> 6053
01> 2731
00> 6058
01> 2751
00> 6121
01> 2831
00> 6139
01> 2871
00> 6074
01> 2786
00> 6058
01> 2720
00> 6073
01> 2743
00> 6138
01> 2868
00> 6148
01> 2886
00> 6103
01> 2799
00> 6058
01> 2714
00> 6101
01> 2769
00> 6138
01> 2851
00> 6139
01> 2854
00> 6089
01> 2774
00> 6026
01> 2694
00> 6109
01> 2793
00> 6126
01> 2857
00> 6154
01> 2911
00> 6134
01> 2809
00> 6089
01> 2742
00> 6093
01> 2801
00> 6128
01> 2844
00> 6160
01> 2916
00> 6126
01> 2839
00> 6091
01> 2760
00> 6096
01> 2773
00> 6116
01> 2853
00> 6115
01> 2876
00> 6133
01> 2800
00> 6112
01> 2774
00> 6078
01> 2770
00> 6137
01> 2853
00> 6131
01> 2868
00> 6126
01> 2816
00> 6099
01> 2757
00> 6108
01> 2805
00> 6126
01> 2869
00> 6134
01> 2879
00> 6104
01> 2794
00> 6094
01> 2753
00> 6120
01> 2805
00> 6148
01> 2890
00> 6128
01> 2894
00> 6079
01> 2831
00> 6086
01> 2748
00> 6123
01> 2834
00> 6145
01> 2909
00> 6158
01> 2916
00> 6100
01> 2834
00> 6068
01> 2776
00> 6145
01> 2844
00> 6123
01> 2873
00> 6155
01> 2929
00> 6100
01> 2873
00> 6087
01> 2760
00> 6117
01> 2814
00> 6119
01> 2856
00> 6107
01> 2867
00> 6164
01> 2885
00> 6101
01> 2771
00> 6131
01> 2837
00> 6151
01> 2896
00> 6127
01> 2914
00> 6079
01> 2836
00> 6061
01> 2746
00> 6080
01> 2758
00> 6151
01> 2873
00> 6157
01> 2911
00> 6109
01> 2836
00> 6091
01> 2778
00> 6100
01> 2820
00> 6128
01> 2862
00> 6115
01> 2924
00> 6103
01> 2805
00> 6096
01> 2768
00> 6084
01> 2815
00> 6076
01> 2841
00> 6106
01> 2856
00> 6128
01> 2840
00> 6108
01> 2784
00> 6114
01> 2818
00> 6143
01> 2889
00> 6168
01> 2912
00> 6064
01> 2826
00> 6053
01> 2735
00> 6151
01> 2853
00> 6149
01> 2888
00> 6138
01> 2859
00> 6113
01> 2823
00> 6076
01> 2760
00> 6099
01> 2817
00> 6142
01> 2870
00> 6149
01> 2894
00> 6107
01> 2828
00> 6081
01> 2766
00> 6077
01> 2812
00> 6119
01> 2861
00> 6124
01> 2859
00> 6122
01> 2859
00> 6107
01> 2811
00> 6114
01> 2799
00> 6146
01> 2858
00> 6158
01> 2908
00> 6089
01> 2829
00> 6059
01> 2759
00> 6105
01> 2816
00> 6158
01> 2896
00> 6158
01> 2903
00> 6106
01> 2814
00> 6074
01> 2777
00> 6126
01> 2810
00> 6152
01> 2892
00> 6163
01> 2926
00> 6123
01> 2815
00> 6091
01> 2768
00> 6104
01> 2809
00> 6148
01> 2851
00> 6130
01> 2864
00> 6088
01> 2771
00> 6088
01> 2758
00> 6101
01> 2805
00> 6149
01> 2850
00> 6119
01> 2851
00> 6121
01> 2799
00> 6086
01> 2735
00> 6096
01> 2762
00> 6139
01> 2835
00> 6101
01> 2824
00> 6088
01> 2773
00> 6073
01> 2718
00> 6068
01> 2776
00> 6112
01> 2847
00> 6158
01> 2843
00> 6121
01> 2795
00> 6079
01> 2724
00> 6089
01> 2762
00> 6104
01> 2810
00> 6103
01> 2834
00> 6092
01> 2794
00> 6096
01> 2731
00> 6075
01> 2738
00> 6118
01> 2816
00> 6158
01> 2886
00> 6099
01> 2775
00> 6071
01> 2716
00> 6103
01> 2795
00> 6153
01> 2833
00> 6139
01> 2866
00> 6088
01> 2778
00> 6041
01> 2720
00> 6099
01> 2781
00> 6131
01> 2834
00> 6171
01> 2888
00> 6114
01> 2802
00> 6060
01> 2709
00> 6100
01> 2767
00> 6114
01> 2823
00> 6131
01> 2855
00> 6129
01> 2834
00> 6097
01> 2751
00> 6099
01> 2766
00> 6142
01> 2844
00> 6126
01> 2874
00> 6131
01> 2843
00> 6081
01> 2767
00> 6054
01> 2710
00> 6124
01> 2814
00> 6169
01> 2879
00> 6121
01> 2818
00> 6090
01> 2744
00> 6099
01> 2773
00> 6124
01> 2861
00> 6144
01> 2879
00> 6138
01> 2820
00> 6097
01> 2753
00> 6057
01> 2758
00> 6128
01> 2847
00> 6168
01> 2904
00> 6105
01> 2816
00> 6065
01> 2748
00> 6086
01> 2748
00> 6148
01> 2846
00> 6161
01> 2911
00> 6129
01> 2846
00> 6080
01> 2741
00> 6098
01> 2778
00> 6144
01> 2839
00> 6166
01> 2892
00> 6115
01> 2814
00> 6094
01> 2769
00> 6093
01> 2794
00> 6120
01> 2841
00> 6113
01> 2871
00> 6131
01> 2831
00> 6084
01> 2749
00> 6041
01> 2744
00> 6101
01> 2828
00> 6175
01> 2867
00> 6135
01> 2835
00> 6083
01> 2758
00> 6066
01> 2762
00> 6130
01> 2827
00> 6098
01> 2854
00> 6112
01> 2816
00> 6117
01> 2767
00> 6078
01> 2769
00> 6113
01> 2806
00> 6193
01> 2878
00> 6141
01> 2821
00> 6078
01> 2744
00> 6103
01> 2785
00> 6140
01> 2833
00> 6144
01> 2861
00> 6120
01> 2818
00> 6091
01> 2754
00> 6106
01> 2803
00> 6127
01> 2820
00> 6123
01> 2822
00> 6123
01> 2816
00> 6074
01> 2743
00> 6087
01> 2741
00> 6176
01> 2852
00> 6197
01> 2901
00> 6143
01> 2803
00> 6125
01> 2763
00> 6132
01> 2800
00> 6138
01> 2852
00> 6123
01> 2843
00> 6121
01> 2818
00> 6081
01> 2722
00> 6143
01> 2793
00> 6165
01> 2851
00> 6151
01> 2854
00> 6119
01> 2783
00> 6123
01> 2759
00> 6124
01> 2801
00> 6109
01> 2834
00> 6174
01> 2874
00> 6154
01> 2838
00> 6097
01> 2740
00> 6113
01> 2776
00> 6147
01> 2843
00> 6151
01> 2880
00> 6122
01> 2843
00> 6094
01> 2711
00> 6130
01> 2781
00> 6154
01> 2864
00> 6179
01> 2899
00> 6134
01> 2833
00> 6113
01> 2765
00> 6118
01> 2786
00> 6136
01> 2824
00> 6151
01> 2903
00> 6126
01> 2838
00> 6141
01> 2796
00> 6136
01> 2777
00> 6140
01> 2823
00> 6154
01> 2898
00> 6158
01> 2837
00> 6122
01> 2779
00> 6095
01> 2771
00> 6123
01> 2816
00> 6162
01> 2878
00> 6164
01> 2863
00> 6128
01> 2783
00> 6124
01> 2799
00> 6131
01> 2851
00> 6149
01> 2881
00> 6126
01> 2819
00> 6039
01> 2731
00> 6043
01> 2726
00> 6166
01> 2868
00> 6170
01> 2891
00> 6094
01> 2777
00> 6100
01> 2758
00> 6101
01> 2783
00> 6121
01> 2843
00> 6146
01> 2868
00> 6076
01> 2796
00> 6103
01> 2749
00> 6106
01> 2762
00> 6126
01> 2813
00> 6165
01> 2884
00> 6136
01> 2829
00> 6062
01> 2733
00> 6078
01> 2754
00> 6101
01> 2827
00> 6163
01> 2868
00> 6143
01> 2830
00> 6069
01> 2741
00> 6091
01> 2759
00> 6167
01> 2856
00> 6180
01> 2895
00> 6132
01> 2849
00> 6077
01> 2773
00> 6121
01> 2785
00> 6152
01> 2827
00> 6122
01> 2872
00> 6098
01> 2826
00> 6123
01> 2786
00> 6123
01> 2819
00> 6123
01> 2824
00> 6148
01> 2849
00> 6161
01> 2861
00> 6127
01> 2775
00> 6109
01> 2782
00> 6111
01> 2808
00> 6153
01> 2889
00> 6111
01> 2824
00> 6101
01> 2717
00> 6126
01> 2782
00> 6165
01> 2847
00> 6149
01> 2873
00> 6131
01> 2827
00> 6114
01> 2763
00> 6134
01> 2786
00> 6164
01> 2846
00> 6166
01> 2877
00> 6138
01> 2827
00> 6096
01> 2759
00> 6093
01> 2784
00> 6119
01> 2841
00> 6165
01> 2870
00> 6131
01> 2817
00> 6083
01> 2784
00> 6098
01> 2773
00> 6145
01> 2834
00> 6165
01> 2879
00> 6148
01> 2836
00> 6106
01> 2756
00> 6113
01> 2779
00> 6152
01> 2836
00> 6144
01> 2891
00> 6131
01> 2832
00> 6102
01> 2765
00> 6148
01> 2825
00> 6160
01> 2885
00> 6147
01> 2917
00> 6156
01> 2871
00> 6161
01> 2841
00> 6168
01> 2867
00> 6174
01> 2929
00> 6182
01> 2972
00> 6165
01> 2922
00> 6137
01> 2856
00> 6150
01> 2893
00> 6192
01> 2943
00> 6189
01> 2954
00> 6188
01> 2949
00> 6131
01> 2838
00> 6151
01> 2849
00> 6185
01> 2918
00> 6204
01> 2973
00> 6132
01> 2903
00> 6106
01> 2800
00> 6200
01> 2901
00> 6206
01> 2931
00> 6198
01> 2953
00> 6164
01> 2897
00> 6142
01> 2826
00> 6153
01> 2853
00> 6179
01> 2914
00> 6158
01> 2909
00> 6153
01> 2889
00> 6177
01> 2889
00> 6150
01> 2846
00> 6184
01> 2906
00> 6200
01> 2935
00> 6172
01> 2903
00> 6108
01> 2810
00> 6118
01> 2844
00> 6164
01> 2893
00> 6198
01> 2909
00> 6162
01> 2879
00> 6156
01> 2836
00> 6170
01> 2847
00> 6146
01> 2863
00> 6173
01> 2921
00> 6204
01> 2921
00> 6176
01> 2834
00> 6164
01> 2839
00> 6148
01> 2867
00> 6183
01> 2920
00> 6187
01> 2918
00> 6121
01> 2807
00> 6101
01> 2787
00> 6179
01> 2902
00> 6201
01> 2941
00> 6188
01> 2899
00> 6159
01> 2821
00> 6143
01> 2803
00> 6167
01> 2869
00> 6184
01> 2918
00> 6168
01> 2878
00> 6121
01> 2800
00> 6141
01> 2828
00> 6172
01> 2893
00> 6188
01> 2939
00> 6151
01> 2891
00> 6096
01> 2776
00> 6132
01> 2799
00> 6116
01> 2826
00> 6214
01> 2968
00> 6216
01> 2941
00> 6162
01> 2837
00> 6149
01> 2819
00> 6169
01> 2853
00> 6183
01> 2919
00> 6173
01> 2886
00> 6157
01> 2822
00> 6155
01> 2848
00> 6169
01> 2893
00> 6196
01> 2909
00> 6179
01> 2891
00> 6125
01> 2797
00> 6104
01> 2788
00> 6173
01> 2886
00> 6177
01> 2919
00> 6188
01> 2889
00> 6149
01> 2829
00> 6143
01> 2809
00> 6163
01> 2861
00> 6193
01> 2909
00> 6179
01> 2889
00> 6133
01> 2812
00> 6145
01> 2824
00> 6179
01> 2878
00> 6204
01> 2927
00> 6173
01> 2903
00> 6123
01> 2776
00> 6148
01> 2817
00> 6174
01> 2876
00> 6174
01> 2909
00> 6143
01> 2871
00> 6154
01> 2803
00> 6159
01> 2819
00> 6164
01> 2854
00> 6210
01> 2907
00> 6186
01> 2895
00> 6151
01> 2824
00> 6172
01> 2841
00> 6175
01> 2885
00> 6187
01> 2904
00> 6176
01> 2868
00> 6133
01> 2777
00> 6122
01> 2773
00> 6179
01> 2863
00> 6211
01> 2924
00> 6197
01> 2899
00> 6146
01> 2798
00> 6139
01> 2788
00> 6152
01> 2834
00> 6196
01> 2903
00> 6192
01> 2891
00> 6152
01> 2818
00> 6147
01> 2809
00> 6173
01> 2854
00> 6186
01> 2893
00> 6182
01> 2856
00> 6160
01> 2796
00> 6172
01> 2826
00> 6181
01> 2859
00> 6187
01> 2899
00> 6160
01> 2868
00> 6164
01> 2809
00> 6139
01> 2791
00> 6160
01> 2849
00> 6204
01> 2924
00> 6178
01> 2875
00> 6142
01> 2804
00> 6137
01> 2818
00> 6178
01> 2859
00> 6207
01> 2911
00> 6177
01> 2893
00> 6126
01> 2805
00> 6143
01> 2797
00> 6182
01> 2863
00> 6196
01> 2906
00> 6204
01> 2936
00> 6165
01> 2834
00> 6124
01> 2793
00> 6094
01> 2809
00> 6174
01> 2899
00> 6238
01> 2923
00> 6177
01> 2806
00> 6153
01> 2779
00> 6171
01> 2857
00> 6180
01> 2911
00> 6168
01> 2882
00> 6171
01> 2809
00> 6165
01> 2801
00> 6151
01> 2855
00> 6194
01> 2902
00> 6196
01> 2899
00> 6176
01> 2827
00> 6186
01> 2819
00> 6189
01> 2866
00> 6183
01> 2904
00> 6168
01> 2881
00> 6174
01> 2798
00> 6169
01> 2796
00> 6161
01> 2833
00> 6196
01> 2900
00> 6211
01> 2906
00> 6162
01> 2824
00> 6155
01> 2807
00> 6179
01> 2867
00> 6181
01> 2890
00> 6185
01> 2892
00> 6170
01> 2823
00> 6165
01> 2822
00> 6169
01> 2831
00> 6181
01> 2873
00> 6183
01> 2863
00> 6171
01> 2815
00> 6170
01> 2819
00> 6178
01> 2858
00> 6197
01> 2896
00> 6197
01> 2891
00> 6158
01> 2811
00> 6129
01> 2783
00> 6164
01> 2814
00> 6200
01> 2874
00> 6178
01> 2873
00> 6159
01> 2814
00> 6153
01> 2804
00> 6170
01> 2864
00> 6202
01> 2888
00> 6189
01> 2879
00> 6168
01> 2823
00> 6138
01> 2764
00> 6163
01> 2824
00> 6206
01> 2913
00> 6208
01> 2906
00> 6156
01> 2813
00> 6148
01> 2794
00> 6177
01> 2855
00> 6196
01> 2908
00> 6184
01> 2893
00> 6144
01> 2829
00> 6163
01> 2813
00> 6196
01> 2863
00> 6189
01> 2880
00> 6188
01> 2870
00> 6142
01> 2814
00> 6136
01> 2785
00> 6166
01> 2826
00> 6192
01> 2890
00> 6179
01> 2872
00> 6156
01> 2809
00> 6145
01> 2788
00> 6158
01> 2834
00> 6178
01> 2879
00> 6178
01> 2874
00> 6176
01> 2816
00> 6157
01> 2803
00> 6182
01> 2854
00> 6198
01> 2888
00> 6181
01> 2876
00> 6163
01> 2815
00> 6164
01> 2806
00> 6183
01> 2848
00> 6194
01> 2876
00> 6154
01> 2846
00> 6142
01> 2808
00> 6150
01> 2819
00> 6162
01> 2860
00> 6191
01> 2894
00> 6154
01> 2874
00> 6144
01> 2810
00> 6149
01> 2786
00> 6177
01> 2856
00> 6189
01> 2884
00> 6178
01> 2874
00> 6155
01> 2822
00> 6148
01> 2806
00> 6166
01> 2847
00> 6192
01> 2893
00> 6187
01> 2890
00> 6151
01> 2813
00> 6141
01> 2799
00> 6158
01> 2841
00> 6156
01> 2868
00> 6189
01> 2884
00> 6141
01> 2799
00> 6146
01> 2784
00> 6179
01> 2851
00> 6210
01> 2907
00> 6197
01> 2893
00> 6153
01> 2828
00> 6129
01> 2768
00> 6147
01> 2826
00> 6168
01> 2871
00> 6202
01> 2914
00> 6155
01> 2833
00> 6141
01> 2798
00> 6169
01> 2845
00> 6177
01> 2874
00> 6197
01> 2892
00> 6176
01> 2834
00> 6165
01> 2784
00> 6170
01> 2828
00> 6189
01> 2868
00> 6187
01> 2880
00> 6156
01> 2803
00> 6128
01> 2768
00> 6169
01> 2839
00> 6185
01> 2876
00> 6189
01> 2889
00> 6146
01> 2809
00> 6136
01> 2792
00> 6158
01> 2835
00> 6174
01> 2869
00> 6177
01> 2869
00> 6138
01> 2815
00> 6148
01> 2785
00> 6173
01> 2831
00> 6188
01> 2869
00> 6194
01> 2879
00> 6148
01> 2786
00> 6112
01> 2743
00> 6151
01> 2821
00> 6198
01> 2879
00> 6204
01> 2878
00> 6148
01> 2792
00> 6124
01> 2763
00> 6143
01> 2823
00> 6167
01> 2873
00> 6164
01> 2866
00> 6144
01> 2801
00> 6133
01> 2770
00> 6156
01> 2807
00> 6174
01> 2844
00> 6176
01> 2871
00> 6145
01> 2814
00> 6133
01> 2763
00> 6150
01> 2796
00> 6179
01> 2839
00> 6175
01> 2846
00> 6143
01> 2781
00> 6136
01> 2770
00> 6164
01> 2835
00> 6172
01> 2863
00> 6174
01> 2855
00> 6144
01> 2794
00> 6126
01> 2764
00> 6149
01> 2806
00> 6173
01> 2839
00> 6172
01> 2843
00> 6155
01> 2779
00> 6129
01> 2733
00> 6143
01> 2783
00> 6181
01> 2855
00> 6173
01> 2853
00> 6138
01> 2777
00> 6132
01> 2748
00> 6142
01> 2793
00> 6181
01> 2856
00> 6198
01> 2861
00> 6167
01> 2795
00> 6145
01> 2758
00> 6161
01> 2799
00> 6194
01> 2858
00> 6204
01> 2858
00> 6158
01> 2778
00> 6146
01> 2743
00> 6170
01> 2796
00> 6197
01> 2873
00> 6196
01> 2870
00> 6161
01> 2787
00> 6146
01> 2759
00> 6168
01> 2809
00> 6199
01> 2854
00> 6201
01> 2863
00> 6164
01> 2778
00> 6143
01> 2751
00> 6189
01> 2835
00> 6210
01> 2882
00> 6207
01> 2885
00> 6167
01> 2793
00> 6144
01> 2751
00> 6168
01> 2796
00> 6187
01> 2835
00> 6204
01> 2871
00> 6176
01> 2816
00> 6166
01> 2788
00> 6189
01> 2824
00> 6199
01> 2864
00> 6198
01> 2882
00> 6181
01> 2802
00> 6168
01> 2771
00> 6173
01> 2808
00> 6179
01> 2838
00> 6209
01> 2889
00> 6178
01> 2806
00> 6163
01> 2773
00> 6191
01> 2836
00> 6203
01> 2869
00> 6193
01> 2881
00> 6160
01> 2816
00> 6149
01> 2779
00> 6165
01> 2816
00> 6176
01> 2846
00> 6194
01> 2871
00> 6160
01> 2808
00> 6148
01> 2775
00> 6164
01> 2813
00> 6193
01> 2876
00> 6205
01> 2884
00> 6183
01> 2818
00> 6153
01> 2767
00> 6170
01> 2821
00> 6190
01> 2854
00> 6194
01> 2864
00> 6184
01> 2819
00> 6157
01> 2768
00> 6169
01> 2803
00> 6194
01> 2863
00> 6203
01> 2882
00> 6180
01> 2835
00> 6155
01> 2781
00> 6174
01> 2819
00> 6187
01> 2878
00> 6164
01> 2832
00> 6151
01> 2780
00> 6153
01> 2769
00> 6173
01> 2811
00> 6198
01> 2865
00> 6207
01> 2866
00> 6169
01> 2788
00> 6146
01> 2765
00> 6157
01> 2804
00> 6204
01> 2880
00> 6206
01> 2863
00> 6169
01> 2791
00> 6147
01> 2748
00> 6167
01> 2784
00> 6169
01> 2831
00> 6193
01> 2874
00> 6171
01> 2806
00> 6154
01> 2766
00> 6166
01> 2799
00> 6187
01> 2849
00> 6187
01> 2868
00> 6164
01> 2804
00> 6144
01> 2749
00> 6156
01> 2804
00> 6179
01> 2858
00> 6192
01> 2853
00> 6148
01> 2779
00> 6135
01> 2752
00> 6163
01> 2804
00> 6187
01> 2846
00> 6186
01> 2853
00> 6153
01> 2779
00> 6149
01> 2757
00> 6162
01> 2805
00> 6187
01> 2864
00> 6201
01> 2856
00> 6161
01> 2783
00> 6130
01> 2725
00> 6144
01> 2774
00> 6175
01> 2842
00> 6192
01> 2869
00> 6173
01> 2804
00> 6132
01> 2748
00> 6145
01> 2772
00> 6177
01> 2839
00> 6194
01> 2861
00> 6165
01> 2808
00> 6141
01> 2761
00> 6149
01> 2792
00> 6181
01> 2852
00> 6193
01> 2858
00> 6159
01> 2793
00> 6128
01> 2749
00> 6144
01> 2771
00> 6179
01> 2832
00> 6179
01> 2843
00> 6148
01> 2779
00> 6127
01> 2734
00> 6141
01> 2760
00> 6158
01> 2794
00> 6169
01> 2858
00> 6155
01> 2821
00> 6132
01> 2760
00> 6158
01> 2804
00> 6183
01> 2840
00> 6192
01> 2854
00> 6161
01> 2789
00> 6135
01> 2742
00> 6146
01> 2781
00> 6158
01> 2821
00> 6187
01> 2852
00> 6166
01> 2804
00> 6150
01> 2766
00> 6166
01> 2803
00> 6182
01> 2856
00> 6182
01> 2866
00> 6157
01> 2787
00> 6119
01> 2729
00> 6134
01> 2773
00> 6161
01> 2839
00> 6182
01> 2871
00> 6159
01> 2809
00> 6128
01> 2754
00> 6153
01> 2804
00> 6169
01> 2851
00> 6168
01> 2860
00> 6144
01> 2808
00> 6128
01> 2754
00> 6152
01> 2778
00> 6199
01> 2873
00> 6196
01> 2875
00> 6164
01> 2811
00> 6140
01> 2764
00> 6152
01> 2791
00> 6176
01> 2836
00> 6180
01> 2860
00> 6156
01> 2812
00> 6144
01> 2763
00> 6158
01> 2799
00> 6175
01> 2843
00> 6173
01> 2863
00> 6149
01> 2808
00> 6134
01> 2754
00> 6161
01> 2792
00> 6183
01> 2852
00> 6184
01> 2870
00> 6159
01> 2801
00> 6140
01> 2753
00> 6146
01> 2776
00> 6172
01> 2834
00> 6194
01> 2867
00> 6176
01> 2814
00> 6147
01> 2758
00> 6162
01> 2792
00> 6181
01> 2846
00> 6190
01> 2869
00> 6168
01> 2809
00> 6154
01> 2755
00> 6164
01> 2790
00> 6181
01> 2847
00> 6199
01> 2873
00> 6166
01> 2803
00> 6144
01> 2752
00> 6171
01> 2801
00> 6199
01> 2856
00> 6200
01> 2875
00> 6167
01> 2824
00> 6143
01> 2753
00> 6159
01> 2788
00> 6183
01> 2852
00> 6201
01> 2877
00> 6179
01> 2816
00> 6145
01> 2753
00> 6161
01> 2784
00> 6188
01> 2838
00> 6189
01> 2863
00> 6155
01> 2800
00> 6139
01> 2748
00> 6163
01> 2806
00> 6189
01> 2854
00> 6201
01> 2863
00> 6171
01> 2802
00> 6148
01> 2758
00> 6154
01> 2784
00> 6174
01> 2836
00> 6192
01> 2869
00> 6173
01> 2816
00> 6144
01> 2756
00> 6153
01> 2794
00> 6179
01> 2856
00> 6198
01> 2879
00> 6181
01> 2816
00> 6157
01> 2765
00> 6164
01> 2794
00> 6183
01> 2843
00> 6196
01> 2862
00> 6174
01> 2812
00> 6143
01> 2759
00> 6154
01> 2798
00> 6193
01> 2866
00> 6195
01> 2883
00> 6163
01> 2810
00> 6144
01> 2744
00> 6161
01> 2793
00> 6183
01> 2859
00> 6208
01> 2883
00> 6186
01> 2833
00> 6159
01> 2779
00> 6168
01> 2795
00> 6175
01> 2836
00> 6176
01> 2856
00> 6173
01> 2829
00> 6149
01> 2779
00> 6167
01> 2791
00> 6185
01> 2835
00> 6184
01> 2859
00> 6161
01> 2811
00> 6143
01> 2751
00> 6168
01> 2783
00> 6202
01> 2848
00> 6199
01> 2879
00> 6175
01> 2831
00> 6163
01> 2791
00> 6178
01> 2811
00> 6194
01> 2858
00> 6209
01> 2882
00> 6184
01> 2838
00> 6158
01> 2773
00> 6179
01> 2800
00> 6199
01> 2851
00> 6213
01> 2885
00> 6184
01> 2836
00> 6153
01> 2771
00> 6170
01> 2803
00> 6197
01> 2866
00> 6203
01> 2883
00> 6190
01> 2847
00> 6154
01> 2785
00> 6156
01> 2811
00> 6198
01> 2880
00> 6213
01> 2907
00> 6191
01> 2853
00> 6151
01> 2771
00> 6164
01> 2809
00> 6194
01> 2883
00> 6221
01> 2900
00> 6195
01> 2841
00> 6165
01> 2783
00> 6179
01> 2811
00> 6203
01> 2856
00> 6206
01> 2881
00> 6189
01> 2836
00> 6163
01> 2784
00> 6174
01> 2804
00> 6200
01> 2860
00> 6213
01> 2895
00> 6184
01> 2846
00> 6156
01> 2784
00> 6170
01> 2813
00> 6197
01> 2868
00> 6208
01> 2888
00> 6179
01> 2833
00> 6144
01> 2766
00> 6161
01> 2798
00> 6189
01> 2864
00> 6211
01> 2904
00> 6191
01> 2826
00> 6158
01> 2759
00> 6173
01> 2788
00> 6196
01> 2863
00> 6218
01> 2903
00> 6196
01> 2854
00> 6171
01> 2787
00> 6176
01> 2811
00> 6196
01> 2873
00> 6203
01> 2899
00> 6184
01> 2851
00> 6163
01> 2783
00> 6184
01> 2817
00> 6200
01> 2864
00> 6215
01> 2891
00> 6194
01> 2851
00> 6167
01> 2778
00> 6178
01> 2800
00> 6206
01> 2854
00> 6213
01> 2876
00> 6196
01> 2843
00> 6169
01> 2789
00> 6180
01> 2808
00> 6194
01> 2858
00> 6212
01> 2894
00> 6197
01> 2863
00> 6170
01> 2803
00> 6181
01> 2829
00> 6210
01> 2875
00> 6221
01> 2902
00> 6196
01> 2860
00> 6173
01> 2797
00> 6176
01> 2817
00> 6206
01> 2869
00> 6229
01> 2889
00> 6209
01> 2842
00> 6176
01> 2783
00> 6186
01> 2820
00> 6211
01> 2880
00> 6223
01> 2915
00> 6203
01> 2870
00> 6175
01> 2801
00> 6182
01> 2819
00> 6209
01> 2873
00> 6223
01> 2903
00> 6206
01> 2863
00> 6182
01> 2795
00> 6189
01> 2823
00> 6208
01> 2879
00> 6226
01> 2913
00> 6213
01> 2876
00> 6183
01> 2801
00> 6188
01> 2826
00> 6212
01> 2889
00> 6229
01> 2916
00> 6205
01> 2860
00> 6172
01> 2788
00> 6186
01> 2813
00> 6213
01> 2873
00> 6226
01> 2911
00> 6213
01> 2879
00> 6183
01> 2808
00> 6181
01> 2816
00> 6211
01> 2869
00> 6228
01> 2905
00> 6208
01> 2869
00> 6175
01> 2802
00> 6184
01> 2819
00> 6204
01> 2869
00> 6227
01> 2899
00> 6215
01> 2865
00> 6184
01> 2803
00> 6191
01> 2819
00> 6214
01> 2880
00> 6229
01> 2909
00> 6209
01> 2863
00> 6174
01> 2795
00> 6184
01> 2821
00> 6213
01> 2873
00> 6233
01> 2901
00> 6214
01> 2862
00> 6178
01> 2795
00> 6182
01> 2821
00> 6213
01> 2879
00> 6219
01> 2902
00> 6208
01> 2869
00> 6177
01> 2795
00> 6182
01> 2803
00> 6213
01> 2874
00> 6241
01> 2917
00> 6220
01> 2874
00> 6175
01> 2787
00> 6183
01> 2802
00> 6215
01> 2871
00> 6233
01> 2906
00> 6219
01> 2873
00> 6178
01> 2798
00> 6185
01> 2807
00> 6208
01> 2861
00> 6225
01> 2899
00> 6218
01> 2864
00> 6181
01> 2791
00> 6184
01> 2810
00> 6217
01> 2873
00> 6235
01> 2907
00> 6215
01> 2866
00> 6179
01> 2786
00> 6187
01> 2802
00> 6222
01> 2873
00> 6246
01> 2914
00> 6228
01> 2884
00> 6198
01> 2808
00> 6201
01> 2811
00> 6223
01> 2861
00> 6238
01> 2895
00> 6226
01> 2864
00> 6191
01> 2793
00> 6204
01> 2812
00> 6230
01> 2867
00> 6248
01> 2909
00> 6235
01> 2878
00> 6199
01> 2797
00> 6203
01> 2812
00> 6229
01> 2868
00> 6238
01> 2889
00> 6228
01> 2854
00> 6195
01> 2789
00> 6208
01> 2820
00> 6239
01> 2890
00> 6256
01> 2927
00> 6239
01> 2884
00> 6194
01> 2796
00> 6190
01> 2797
00> 6226
01> 2866
00> 6250
01> 2917
00> 6236
01> 2883
00> 6200
01> 2804
00> 6204
01> 2812
00> 6233
01> 2863
00> 6254
01> 2906
00> 6237
01> 2881
00> 6205
01> 2813
00> 6207
01> 2813
00> 6230
01> 2867
00> 6248
01> 2909
00> 6235
01> 2888
00> 6212
01> 2808
00> 6214
01> 2805
00> 6231
01> 2865
00> 6250
01> 2905
00> 6240
01> 2877
00> 6203
01> 2799
00> 6211
01> 2813
00> 6231
01> 2871
00> 6247
01> 2907
00> 6234
01> 2880
00> 6204
01> 2811
00> 6213
01> 2818
00> 6240
01> 2871
00> 6257
01> 2911
00> 6236
01> 2877
00> 6200
01> 2800
00> 6208
01> 2809
00> 6238
01> 2876
00> 6259
01> 2917
00> 6241
01> 2883
00> 6204
01> 2797
00> 6213
01> 2807
00> 6240
01> 2881
00> 6258
01> 2921
00> 6243
01> 2893
00> 6211
01> 2820
00> 6215
01> 2831
00> 6241
01> 2888
00> 6262
01> 2927
00> 6257
01> 2911
00> 6221
01> 2826
00> 6219
01> 2822
00> 6241
01> 2881
00> 6259
01> 2921
00> 6252
01> 2886
00> 6224
01> 2823
00> 6220
01> 2840
00> 6244
01> 2899
00> 6261
01> 2939
00> 6252
01> 2922
00> 6223
01> 2846
00> 6221
01> 2841
00> 6248
01> 2896
00> 6264
01> 2933
00> 6254
01> 2912
00> 6217
01> 2840
00> 6221
01> 2837
00> 6243
01> 2881
00> 6258
01> 2925
00> 6248
01> 2914
00> 6218
01> 2845
00> 6223
01> 2853
00> 6246
01> 2902
00> 6264
01> 2935
00> 6260
01> 2913
00> 6221
01> 2842
00> 6228
01> 2853
00> 6260
01> 2918
00> 6278
01> 2953
00> 6263
01> 2928
00> 6229
01> 2849
00> 6236
01> 2849
00> 6258
01> 2905
00> 6273
01> 2943
00> 6261
01> 2918
00> 6234
01> 2841
00> 6231
01> 2847
00> 6253
01> 2915
00> 6271
01> 2960
00> 6264
01> 2943
00> 6231
01> 2865
00> 6226
01> 2859
00> 6254
01> 2917
00> 6276
01> 2963
00> 6269
01> 2940
00> 6231
01> 2856
00> 6231
01> 2850
00> 6259
01> 2906
00> 6271
01> 2953
00> 6258
01> 2941
00> 6233
01> 2873
00> 6232
01> 2870
00> 6249
01> 2923
00> 6269
01> 2969
00> 6266
01> 2964
00> 6234
01> 2885
00> 6233
01> 2879
00> 6255
01> 2934
00> 6274
01> 2972
00> 6266
01> 2959
00> 6223
01> 2876
00> 6215
01> 2869
00> 6254
01> 2928
00> 6278
01> 2975
00> 6272
01> 2963
00> 6245
01> 2894
00> 6240
01> 2886
00> 6262
01> 2935
00> 6284
01> 2986
00> 6276
01> 2973
00> 6236
01> 2896
00> 6229
01> 2885
00> 6256
01> 2934
00> 6277
01> 2976
00> 6274
01> 2968
00> 6233
01> 2889
00> 6233
01> 2894
00> 6261
01> 2948
00> 6280
01> 2986
00> 6277
01> 2968
00> 6246
01> 2903
00> 6236
01> 2891
00> 6255
01> 2943
00> 6274
01> 2986
00> 6269
01> 2969
00> 6237
01> 2893
00> 6228
01> 2874
00> 6247
01> 2918
00> 6265
01> 2959
00> 6261
01> 2954
00> 6231
01> 2885
00> 6228
01> 2879
00> 6250
01> 2938
00> 6273
01> 2990
00> 6269
01> 2968
00> 6238
01> 2884
00> 6232
01> 2873
00> 6249
01> 2930
00> 6269
01> 2971
00> 6266
01> 2961
00> 6242
01> 2898
00> 6228
01> 2880
00> 6250
01> 2938
00> 6261
01> 2978
00> 6254
01> 2963
00> 6219
01> 2884
00> 6214
01> 2863
00> 6246
01> 2919
00> 6266
01> 2971
00> 6264
01> 2972
00> 6236
01> 2899
00> 6225
01> 2873
00> 6239
01> 2914
00> 6261
01> 2955
00> 6252
01> 2938
00> 6216
01> 2879
00> 6211
01> 2890
00> 6233
01> 2946
00> 6262
01> 2987
00> 6262
01> 2978
00> 6228
01> 2906
00> 6219
01> 2894
00> 6244
01> 2939
00> 6264
01> 2987
00> 6253
01> 2989
00> 6221
01> 2910
00> 6217
01> 2894
00> 6246
01> 2953
00> 6270
01> 2988
00> 6259
01> 2971
00> 6224
01> 2904
00> 6219
01> 2886
00> 6249
01> 2934
00> 6279
01> 2999
00> 6276
01> 2994
00> 6237
01> 2915
00> 6227
01> 2898
00> 6257
01> 2961
00> 6287
01> 3011
00> 6275
01> 2994
00> 6246
01> 2918
00> 6240
01> 2895
00> 6259
01> 2944
00> 6283
01> 2989
00> 6292
01> 2983
00> 6260
01> 2904
00> 6243
01> 2892
00> 6266
01> 2953
00> 6286
01> 3002
00> 6280
01> 2985
00> 6250
01> 2901
00> 6253
01> 2900
00> 6275
01> 2954
00> 6301
01> 2995
00> 6301
01> 2989
00> 6274
01> 2915
00> 6256
01> 2897
00> 6271
01> 2941
00> 6306
01> 3003
00> 6303
01> 3001
00> 6259
01> 2914
00> 6246
01> 2890
00> 6281
01> 2957
00> 6296
01> 2997
00> 6309
01> 3001
00> 6301
01> 2944
00> 6279
01> 2912
00> 6284
01> 2945
00> 6304
01> 2991
00> 6296
01> 2988
00> 6266
01> 2921
00> 6268
01> 2916
00> 6294
01> 2982
00> 6321
01> 3024
00> 6315
01> 3009
00> 6269
01> 2929
00> 6260
01> 2905
00> 6298
01> 2968
00> 6324
01> 3017
00> 6326
01> 3017
00> 6300
01> 2954
00> 6284
01> 2919
00> 6304
01> 2976
00> 6326
01> 3027
00> 6324
01> 3016
00> 6283
01> 2936
00> 6274
01> 2924
00> 6311
01> 2989
00> 6329
01> 3025
00> 6321
01> 3011
00> 6286
01> 2938
00> 6276
01> 2909
00> 6291
01> 2946
00> 6323
01> 2999
00> 6336
01> 3013
00> 6321
01> 2959
00> 6299
01> 2933
00> 6301
01> 2974
00> 6311
01> 3018
00> 6314
01> 3014
00> 6281
01> 2938
00> 6271
01> 2919
00> 6297
01> 2984
00> 6324
01> 3035
00> 6315
01> 3028
00> 6279
01> 2954
00> 6273
01> 2929
00> 6293
01> 2976
00> 6320
01> 3022
00> 6324
01> 3024
00> 6290
01> 2956
00> 6279
01> 2925
00> 6300
01> 2976
00> 6322
01> 3028
00> 6327
01> 3029
00> 6299
01> 2967
00> 6288
01> 2939
00> 6303
01> 2983
00> 6324
01> 3031
00> 6326
01> 3031
00> 6291
01> 2956
00> 6283
01> 2938
00> 6309
01> 2988
00> 6324
01> 3024
00> 6316
01> 3021
00> 6290
01> 2953
00> 6278
01> 2924
00> 6304
01> 2977
00> 6330
01> 3043
00> 6336
01> 3058
00> 6303
01> 2981
00> 6288
01> 2939
00> 6303
01> 2984
00> 6325
01> 3036
00> 6321
01> 3046
00> 6291
01> 2979
00> 6280
01> 2953
00> 6304
01> 2993
00> 6328
01> 3029
00> 6333
01> 3035
00> 6301
01> 2980
00> 6279
01> 2944
00> 6289
01> 2995
00> 6313
01> 3050
00> 6318
01> 3056
00> 6291
01> 2985
00> 6280
01> 2968
00> 6298
01> 3020
00> 6317
01> 3065
00> 6316
01> 3063
00> 6281
01> 2976
00> 6273
01> 2952
00> 6297
01> 3014
00> 6311
01> 3072
00> 6321
01> 3079
00> 6294
01> 2998
00> 6268
01> 2945
00> 6301
01> 2993
00> 6330
01> 3041
00> 6329
01> 3069
00> 6291
01> 3012
00> 6269
01> 2954
00> 6287
01> 2975
00> 6312
01> 3029
00> 6321
01> 3072
00> 6284
01> 3032
00> 6261
01> 3007
00> 6273
01> 3044
00> 6305
01> 3079
00> 6321
01> 3083
00> 6301
01> 3002
00> 6260
01> 2978
00> 6295
01> 3001
00> 6311
01> 3056
00> 6338
01> 3086
00> 6301
01> 2996
00> 6286
01> 2959
00> 6304
01> 3021
00> 6308
01> 3054
00> 6270
01> 3070
00> 6263
01> 3020
00> 6288
01> 3006
00> 6306
01> 3044
00> 6314
01> 3072
00> 6308
01> 3109
00> 6281
01> 3030
00> 6261
01> 2961
00> 6287
01> 3011
00> 6303
01> 3063
00> 6302
01> 3081
00> 6277
01> 3020
00> 6258
01> 2985
00> 6282
01> 3029
00> 6307
01> 3076
00> 6295
01> 3073
00> 6271
01> 3003
00> 6258
01> 2979
00> 6276
01> 3031
00> 6298
01> 3071
00> 6303
01> 3104
00> 6274
01> 3047
00> 6258
01> 3001
00> 6264
01> 3046
00> 6268
01> 3086
00> 6298
01> 3093
00> 6277
01> 3025
00> 6264
01> 2997
00> 6276
01> 3050
00> 6293
01> 3083
00> 6315
01> 3085
00> 6276
01> 3009
00> 6256
01> 2978
00> 6276
01> 3034
00> 6261
01> 3126
00> 6313
01> 3099
00> 6293
01> 3032
00> 6253
01> 2976
00> 6273
01> 3010
00> 6290
01> 3066
00> 6299
01> 3094
00> 6266
01> 3040
00> 6252
01> 2989
00> 6264
01> 3007
00> 6273
01> 3064
00> 6281
01> 3076
00> 6249
01> 3024
00> 6233
01> 2976
00> 6254
01> 3012
00> 6279
01> 3075
00> 6295
01> 3108
00> 6239
01> 3029
00> 6219
01> 2974
00> 6268
01> 3026
00> 6297
01> 3081
00> 6293
01> 3096
00> 6271
01> 3031
00> 6231
01> 2988
00> 6258
01> 3033
00> 6301
01> 3104
00> 6317
01> 3120
00> 6286
01> 3048
00> 6249
01> 2989
00> 6262
01> 3019
00> 6288
01> 3082
00> 6286
01> 3101
00> 6265
01> 3034
00> 6250
01> 2989
00> 6264
01> 3031
00> 6302
01> 3076
00> 6301
01> 3089
00> 6242
01> 3052
00> 6254
01> 3004
00> 6270
01> 3043
00> 6292
01> 3068
00> 6289
01> 3099
00> 6262
01> 3038
00> 6251
01> 2988
00> 6273
01> 3031
00> 6290
01> 3089
00> 6301
01> 3114
00> 6248
01> 3038
00> 6239
01> 2973
00> 6286
01> 3041
00> 6304
01> 3094
00> 6303
01> 3113
00> 6272
01> 3063
00> 6259
01> 3003
00> 6280
01> 3046
00> 6302
01> 3098
00> 6309
01> 3116
00> 6286
01> 3054
00> 6251
01> 2979
00> 6261
01> 3027
00> 6302
01> 3083
00> 6312
01> 3119
00> 6275
01> 3071
00> 6256
01> 2998
00> 6278
01> 3029
00> 6307
01> 3106
00> 6307
01> 3112
00> 6269
01> 3046
00> 6244
01> 3004
00> 6279
01> 3021
00> 6298
01> 3089
00> 6317
01> 3106
00> 6288
01> 3058
00> 6263
01> 3016
00> 6275
01> 3043
00> 6288
01> 3101
00> 6311
01> 3123
00> 6301
01> 3070
00> 6279
01> 3011
00> 6288
01> 3029
00> 6310
01> 3084
00> 6314
01> 3131
00> 6272
01> 3099
00> 6253
01> 3031
00> 6303
01> 3061
00> 6322
01> 3124
00> 6313
01> 3154
00> 6293
01> 3083
00> 6271
01> 3026
00> 6273
01> 3043
00> 6311
01> 3091
00> 6331
01> 3131
00> 6277
01> 3083
00> 6257
01> 3018
00> 6299
01> 3056
00> 6322
01> 3111
00> 6331
01> 3138
00> 6304
01> 3081
00> 6282
01> 3033
00> 6295
01> 3066
00> 6310
01> 3131
00> 6301
01> 3164
00> 6284
01> 3081
00> 6250
01> 3032
00> 6289
01> 3071
00> 6325
01> 3119
00> 6336
01> 3141
00> 6309
01> 3083
00> 6273
01> 3023
00> 6284
01> 3061
00> 6292
01> 3118
00> 6292
01> 3137
00> 6252
01> 3102
00> 6272
01> 3043
00> 6306
01> 3102
00> 6291
01> 3131
00> 6306
01> 3129
00> 6298
01> 3088
00> 6283
01> 3039
00> 6284
01> 3051
00> 6303
01> 3114
00> 6324
01> 3138
00> 6294
01> 3093
00> 6268
01> 3025
00> 6276
01> 3067
00> 6285
01> 3122
00> 6286
01> 3136
00> 6301
01> 3104
00> 6264
01> 3044
00> 6278
01> 3063
00> 6307
01> 3109
00> 6310
01> 3146
00> 6280
01> 3101
00> 6261
01> 3038
00> 6283
01> 3063
00> 6310
01> 3134
00> 6318
01> 3151
00> 6280
01> 3101
00> 6268
01> 3041
00> 6282
01> 3062
00> 6295
01> 3111
00> 6316
01> 3155
00> 6293
01> 3120
00> 6272
01> 3061
00> 6278
01> 3080
00> 6284
01> 3138
00> 6319
01> 3140
00> 6299
01> 3104
00> 6257
01> 3052
00> 6289
01> 3061
00> 6304
01> 3119
00> 6321
01> 3156
00> 6282
01> 3102
00> 6263
01> 3039
00> 6281
01> 3077
00> 6307
01> 3145
00> 6301
01> 3183
00> 6301
01> 3101
00> 6257
01> 3019
00> 6263
01> 3039
00> 6311
01> 3099
00> 6317
01> 3163
00> 6278
01> 3106
00> 6263
01> 3048
00> 6263
01> 3084
00> 6284
01> 3143
00> 6316
01> 3152
00> 6305
01> 3100
00> 6253
01> 3044
00> 6271
01> 3069
00> 6311
01> 3131
00> 6314
01> 3164
00> 6276
01> 3093
00> 6249
01> 3024
00> 6271
01> 3076
00> 6299
01> 3144
00> 6309
01> 3143
00> 6293
01> 3098
00> 6266
01> 3039
00> 6261
01> 3062
00> 6287
01> 3094
00> 6325
01> 3151
00> 6308
01> 3111
00> 6279
01> 3055
00> 6285
01> 3081
00> 6304
01> 3131
00> 6319
01> 3153
00> 6290
01> 3097
00> 6263
01> 3062
00> 6280
01> 3096
00> 6310
01> 3124
00> 6322
01> 3161
00> 6319
01> 3113
00> 6288
01> 3051
00> 6301
01> 3086
00> 6313
01> 3142
00> 6286
01> 3163
00> 6301
01> 3143
00> 6296
01> 3073
00> 6301
01> 3106
00> 6329
01> 3164
00> 6334
01> 3185
00> 6327
01> 3136
00> 6298
01> 3094
00> 6314
01> 3116
00> 6325
01> 3158
00> 6334
01> 3176
00> 6322
01> 3138
00> 6296
01> 3068
00> 6298
01> 3096
00> 6319
01> 3153
00> 6325
01> 3183
00> 6326
01> 3154
00> 6296
01> 3107
00> 6303
01> 3089
00> 6321
01> 3143
00> 6345
01> 3198
00> 6334
01> 3165
00> 6291
01> 3091
00> 6298
01> 3109
00> 6328
01> 3171
00> 6337
01> 3192
00> 6334
01> 3178
00> 6316
01> 3092
00> 6309
01> 3138
00> 6335
01> 3168
00> 6355
01> 3201
00> 6318
01> 3161
00> 6276
01> 3088
00> 6318
01> 3114
00> 6343
01> 3155
00> 6349
01> 3183
00> 6334
01> 3154
00> 6296
01> 3101
00> 6311
01> 3123
00> 6331
01> 3164
00> 6363
01> 3218
00> 6343
01> 3186
00> 6312
01> 3095
00> 6314
01> 3099
00> 6330
01> 3152
00> 6338
01> 3193
00> 6353
01> 3183
00> 6316
01> 3090
00> 6304
01> 3106
00> 6337
01> 3168
00> 6337
01> 3193
00> 6332
01> 3159
00> 6321
01> 3114
00> 6323
01> 3116
00> 6341
01> 3186
00> 6360
01> 3218
00> 6353
01> 3173
00> 6302
01> 3104
00> 6306
01> 3106
00> 6339
01> 3166
00> 6354
01> 3204
00> 6344
01> 3186
00> 6323
01> 3103
00> 6319
01> 3112
00> 6351
01> 3178
00> 6370
01> 3222
00> 6345
01> 3175
00> 6308
01> 3098
00> 6307
01> 3116
00> 6324
01> 3167
00> 6368
01> 3184
00> 6341
01> 3145
00> 6306
01> 3075
00> 6326
01> 3113
00> 6359
01> 3164
00> 6371
01> 3203
00> 6353
01> 3158
00> 6307
01> 3088
00> 6314
01> 3113
00> 6343
01> 3154
00> 6365
01> 3193
00> 6338
01> 3148
00> 6318
01> 3077
00> 6334
01> 3098
00> 6358
01> 3158
00> 6351
01> 3188
00> 6333
01> 3156
00> 6316
01> 3094
00> 6324
01> 3097
00> 6338
01> 3134
00> 6355
01> 3174
00> 6349
01> 3148
00> 6308
01> 3071
00> 6304
01> 3085
00> 6329
01> 3176
00> 6326
01> 3196
00> 6357
01> 3143
00> 6333
01> 3084
00> 6335
01> 3086
00> 6339
01> 3160
00> 6358
01> 3200
00> 6345
01> 3166
00> 6290
01> 3098
00> 6320
01> 3114
00> 6349
01> 3170
00> 6346
01> 3166
00> 6332
01> 3131
00> 6316
01> 3081
00> 6302
01> 3084
00> 6312
01> 3124
00> 6363
01> 3183
00> 6352
01> 3143
00> 6306
01> 3066
00> 6300
01> 3082
00> 6318
01> 3128
00> 6348
01> 3181
00> 6333
01> 3141
00> 6285
01> 3061
00> 6284
01> 3056
00> 6331
01> 3128
00> 6361
01> 3185
00> 6320
01> 3143
00> 6302
01> 3062
00> 6312
01> 3070
00> 6314
01> 3111
00> 6330
01> 3146
00> 6326
01> 3143
00> 6285
01> 3033
00> 6281
01> 3038
00> 6315
01> 3108
00> 6338
01> 3166
00> 6312
01> 3099
00> 6274
01> 3032
00> 6274
01> 3046
00> 6304
01> 3108
00> 6321
01> 3131
00> 6306
01> 3098
00> 6269
01> 3022
00> 6269
01> 3035
00> 6297
01> 3091
00> 6311
01> 3123
00> 6291
01> 3091
00> 6266
01> 3021
00> 6281
01> 3033
00> 6298
01> 3098
00> 6311
01> 3124
00> 6300
01> 3099
00> 6269
01> 3032
00> 6279
01> 3044
00> 6310
01> 3099
00> 6328
01> 3139
00> 6309
01> 3108
00> 6269
01> 3049
00> 6275
01> 3040
00> 6307
01> 3105
00> 6316
01> 3130
00> 6285
01> 3099
00> 6293
01> 3036
00> 6288
01> 3035
00> 6308
01> 3106
00> 6328
01> 3138
00> 6302
01> 3102
00> 6253
01> 3017
00> 6278
01> 3032
00> 6298
01> 3099
00> 6298
01> 3144
00> 6299
01> 3082
00> 6284
01> 3040
00> 6293
01> 3030
00> 6300

00> 6316
01> 3129
00> 6308
01> 3113
00> 6279
01> 3039
00> 6284
01> 3028
00> 6297
01> 3066
00> 6310
01> 3113
00> 6304
01> 3114
00> 6288
01> 3038
00> 6284
01> 3049
00> 6281
01> 3105
00> 6325
01> 3129
00> 6319
01> 3110
00> 6267
01> 3034
00> 6276
01> 3043
00> 6308
01> 3096
00> 6328
01> 3142
00> 6316
01> 3113
00> 6284
01> 3037
00> 6280
01> 3038
00> 6292
01> 3087
00> 6308
01> 3124
00> 6311
01> 3099
00> 6266
01> 3026
00> 6261
01> 3040
00> 6312
01> 3070
00> 6328
01> 3113
00> 6311
01> 3093
00> 6261
01> 3029
00> 6266
01> 3030
00> 6289
01> 3078
00> 6314
01> 3122
00> 6299
01> 3099
00> 6268
01> 3035
00> 6281
01> 3038
00> 6303
01> 3084
00> 6307
01> 3119
00> 6307
01> 3085
00> 6286
01> 3028
00> 6289
01> 3027
00> 6292
01> 3073
00> 6307
01> 3108
00> 6304
01> 3112
00> 6289
01> 3053
00> 6283
01> 3046
00> 6281
01> 3081
00> 6317
01> 3100
00> 6303
01> 3083
00> 6286
01> 3028
00> 6278
01> 3020
00> 6307
01> 3087
00> 6321
01> 3120
00> 6311
01> 3101
00> 6278
01> 3035
00> 6283
01> 3046
00> 6324
01> 3102
00> 6342
01> 3134
00> 6325
01> 3124
00> 6296
01> 3058
00> 6290
01> 3044
00> 6316
01> 3101
00> 6342
01> 3149
00> 6338
01> 3131
00> 6316
01> 3064
00> 6310
01> 3060
00> 6323
01> 3101
00> 6324
01> 3127
00> 6321
01> 3114
00> 6299
01> 3048
00> 6296
01> 3048
00> 6327
01> 3110
00> 6338
01> 3119
00> 6320
01> 3101
00> 6310
01> 3055
00> 6314
01> 3062
00> 6325
01> 3108
00> 6340
01> 3141
00> 6336
01> 3128
00> 6297
01> 3054
00> 6293
01> 3040
00> 6318
01> 3096
00> 6327
01> 3141
00> 6325
01> 3143
00> 6295
01> 3056
00> 6283
01> 3020
00> 6303
01> 3076
00> 6327
01> 3129
00> 6331
01> 3129
00> 6305
01> 3057
00> 6288
01> 3038
00> 6309
01> 3087
00> 6335
01> 3128
00> 6331
01> 3121
00> 6297
01> 3038
00> 6289
01> 3023
00> 6306
01> 3079
00> 6320
01> 3116
00> 6311
01> 3109
00> 6281
01> 3057
00> 6281
01> 3036
00> 6309
01> 3088
00> 6335
01> 3139
00> 6334
01> 3133
00> 6294
01> 3050
00> 6288
01> 3034
00> 6308
01> 3094
00> 6321
01> 3137
00> 6337
01> 3144
00> 6309
01> 3066
00> 6293
01> 3044
00> 6314
01> 3094
00> 6341
01> 3129
00> 6339
01> 3128
00> 6304
01> 3059
00> 6283
01> 3026
00> 6306
01> 3080
00> 6339
01> 3136
00> 6338
01> 3130
00> 6305
01> 3063
00> 6301
01> 3056
00> 6315
01> 3102
00> 6333
01> 3125
00> 6332
01> 3108
00> 6304
01> 3051
00> 6301
01> 3045
00> 6323
01> 3102
00> 6342
01> 3135
00> 6338
01> 3122
00> 6317
01> 3049
00> 6311
01> 3023
00> 6322
01> 3069
00> 6334
01> 3117
00> 6335
01> 3120
00> 6309
01> 3059
00> 6307
01> 3048
00> 6335
01> 3090
00> 6349
01> 3136
00> 6352
01> 3128
00> 6326
01> 3055
00> 6306
01> 3033
00> 6333
01> 3082
00> 6352
01> 3124
00> 6345
01> 3116
00> 6316
01> 3050
00> 6304
01> 3033
00> 6321
01> 3083
00> 6346
01> 3130
00> 6353
01> 3123
00> 6308
01> 3055
00> 6293
01> 3038
00> 6322
01> 3089
00> 6351
01> 3131
00> 6346
01> 3122
00> 6313
01> 3045
00> 6315
01> 3032
00> 6326
01> 3071
00> 6330
01> 3109
00> 6337
01> 3123
00> 6313
01> 3066
00> 6303
01> 3046
00> 6323
01> 3083
00> 6338
01> 3117
00> 6342
01> 3118
00> 6314
01> 3056
00> 6309
01> 3025
00> 6320
01> 3079
00> 6337
01> 3127
00> 6341
01> 3132
00> 6311
01> 3059
00> 6293
01> 3035
00> 6309
01> 3071
00> 6334
01> 3113
00> 6339
01> 3118
00> 6308
01> 3053
00> 6287
01> 3024
00> 6307
01> 3068
00> 6334
01> 3109
00> 6339
01> 3114
00> 6311
01> 3052
00> 6284
01> 3023
00> 6302
01> 3069
00> 6317
01> 3107
00> 6327
01> 3107
00> 6298
01> 3035
00> 6278
01> 3005
00> 6303
01> 3060
00> 6319
01> 3109
00> 6316
01> 3112
00> 6293
01> 3051
00> 6283
01> 3024
00> 6301
01> 3072
00> 6319
01> 3109
00> 6311
01> 3102
00> 6287
01> 3036
00> 6277
01> 3008
00> 6296
01> 3056
00> 6320
01> 3099
00> 6322
01> 3099
00> 6288
01> 3031
00> 6274
01> 2999
00> 6291
01> 3053
00> 6305
01> 3098
00> 6311
01> 3098
00> 6275
01> 3033
00> 6263
01> 2998
00> 6282
01> 3051
00> 6305
01> 3091
00> 6310
01> 3086
00> 6274
01> 3021
00> 6249
01> 2995
00> 6273
01> 3042
00> 6294
01> 3086
00> 6289
01> 3071
00> 6259
01> 3006
00> 6242
01> 2978
00> 6261
01> 3036
00> 6281
01> 3074
00> 6275
01> 3085
00> 6257
01> 3011
00> 6238
01> 2973
00> 6251
01> 3028
00> 6276
01> 3075
00> 6269
01> 3068
00> 6242
01> 2996
00> 6227
01> 2958
00> 6246
01> 3008
00> 6278
01> 3056
00> 6277
01> 3069
00> 6231
01> 3014
00> 6239
01> 2983
00> 6249
01> 3009
00> 6270
01> 3054
00> 6286
01> 3064
00> 6239
01> 2979
00> 6229
01> 2954
00> 6253
01> 2997
00> 6280
01> 3047
00> 6275
01> 3058
00> 6244
01> 3009
00> 6228
01> 2961
00> 6250
01> 2999
00> 6264
01> 3061
00> 6269
01> 3070
00> 6256
01> 2996
00> 6238
01> 2960
00> 6257
01> 2997
00> 6280
01> 3038
00> 6278
01> 3051
00> 6249
01> 2987
00> 6233
01> 2939
00> 6261
01> 2989
00> 6281
01> 3040
00> 6275
01> 3046
00> 6258
01> 2993
00> 6243
01> 2953
00> 6256
01> 2989
00> 6283
01> 3043
00> 6293
01> 3061
00> 6269
01> 3005
00> 6263
01> 2968
00> 6273
01> 3006
00> 6292
01> 3051
00> 6289
01> 3054
00> 6259
01> 2994
00> 6244
01> 2954
00> 6267
01> 3001
00> 6284
01> 3048
00> 6288
01> 3057
00> 6263
01> 2996
00> 6249
01> 2968
00> 6269
01> 3017
00> 6284
01> 3059
00> 6289
01> 3065
00> 6264
01> 3003
00> 6244
01> 2968
00> 6268
01> 3017
00> 6289
01> 3069
00> 6293
01> 3071
00> 6279
01> 3008
00> 6266
01> 2968
00> 6271
01> 3002
00> 6296
01> 3056
00> 6310
01> 3072
00> 6277
01> 3013
00> 6261
01> 2976
00> 6277
01> 3023
00> 6293
01> 3068
00> 6290
01> 3066
00> 6267
01> 3004
00> 6247
01> 2967
00> 6273
01> 3008
00> 6304
01> 3064
00> 6308
01> 3080
00> 6271
01> 3021
00> 6257
01> 2983
00> 6274
01> 3023
00> 6291
01> 3062
00> 6297
01> 3076
00> 6276
01> 3035
00> 6263
01> 2989
00> 6269
01> 3017
00> 6288
01> 3049
00> 6288
01> 3059
00> 6253
01> 3014
00> 6253
01> 2981
00> 6271
01> 3015
00> 6291
01> 3076
00> 6303
01> 3098
00> 6279
01> 3033
00> 6258
01> 2979
00> 6270
01> 3018
00> 6296
01> 3070
00> 6301
01> 3083
00> 6273
01> 3030
00> 6256
01> 2997
00> 6278
01> 3029
00> 6305
01> 3077
00> 6306
01> 3081
00> 6274
01> 3026
00> 6249
01> 2976
00> 6275
01> 3025
00> 6295
01> 3080
00> 6306
01> 3096
00> 6296
01> 3042
00> 6273
01> 2998
00> 6264
01> 3029
00> 6296
01> 3076
00> 6305
01> 3101
00> 6274
01> 3044
00> 6263
01> 2999
00> 6276
01> 3036
00> 6295
01> 3089
00> 6309
01> 3112
00> 6288
01> 3064
00> 6271
01> 3012
00> 6278
01> 3044
00> 6301
01> 3086
00> 6310
01> 3108
00> 6281
01> 3060
00> 6267
01> 3019
00> 6284
01> 3056
00> 6304
01> 3094
00> 6307
01> 3111
00> 6282
01> 3056
00> 6258
01> 3008
00> 6273
01> 3043
00> 6295
01> 3091
00> 6313
01> 3119
00> 6294
01> 3073
00> 6274
01> 3024
00> 6283
01> 3053
00> 6313
01> 3098
00> 6321
01> 3106
00> 6293
01> 3061
00> 6282
01> 3015
00> 6288
01> 3045
00> 6305
01> 3086
00> 6309
01> 3105
00> 6293
01> 3054
00> 6271
01> 3009
00> 6288
01> 3035
00> 6303
01> 3087
00> 6311
01> 3116
00> 6302
01> 3063
00> 6278
01> 3009
00> 6285
01> 3040
00> 6308
01> 3088
00> 6308
01> 3112
00> 6297
01> 3066
00> 6283
01> 3013
00> 6288
01> 3036
00> 6321
01> 3090
00> 6336
01> 3117
00> 6308
01> 3064
00> 6277
01> 3008
00> 6289
01> 3047
00> 6318
01> 3108
00> 6323
01> 3114
00> 6301
01> 3061
00> 6280
01> 3012
00> 6294
01> 3042
00> 6313
01> 3092
00> 6332
01> 3114
00> 6319
01> 3064
00> 6282
01> 3016
00> 6290
01> 3042
00> 6306
01> 3087
00> 6308
01> 3102
00> 6272
01> 3048
00> 6239
01> 2989
00> 6250
01> 2998
00> 6265
01> 3054
00> 6259
01> 3078
00> 6236
01> 3029
00> 6214
01> 2964
00> 6221
01> 2997
00> 6243
01> 3046
00> 6249
01> 3051
00> 6208
01> 2981
00> 6185
01> 2936
00> 6198
01> 2973
00> 6219
01> 3012
00> 6236
01> 3034
00> 6217
01> 2986
00> 6189
01> 2935
00> 6206
01> 2966
00> 6226
01> 3011
00> 6238
01> 3034
00> 6214
01> 2983
00> 6195
01> 2941
00> 6213
01> 2995
00> 6234
01> 3036
00> 6236
01> 3036
00> 6211
01> 2985
00> 6200
01> 2944
00> 6214
01> 2991
00> 6237
01> 3035
00> 6244
01> 3054
00> 6220
01> 3003
00> 6198
01> 2966
00> 6214
01> 2986
00> 6235
01> 3020
00> 6241
01> 3044
00> 6216
01> 2988
00> 6196
01> 2935
00> 6209
01> 2976
00> 6236
01> 3029
00> 6242
01> 3048
00> 6226
01> 2997
00> 6202
01> 2951
00> 6215
01> 2978
00> 6237
01> 3020
00> 6238
01> 3036
00> 6207
01> 2989
00> 6181
01> 2932
00> 6202
01> 2965
00> 6228
01> 3012
00> 6219
01> 3042
00> 6200
01> 3000
00> 6168
01> 2928
00> 6175
01> 2946
00> 6193
01> 2997
00> 6195
01> 3027
00> 6174
01> 2973
00> 6149
01> 2921
00> 6141
01> 2930
00> 6173
01> 2978
00> 6171
01> 3008
00> 6168
01> 2971
00> 6150
01> 2914
00> 6153
01> 2921
00> 6160
01> 2949
00> 6169
01> 2988
00> 6152
01> 2956
00> 6129
01> 2876
00> 6145
01> 2893
00> 6163
01> 2948
00> 6183
01> 3001
00> 6169
01> 2954
00> 6109
01> 2891
00> 6120
01> 2916
00> 6155
01> 2927
00> 6156
01> 2944
00> 6141
01> 2917
00> 6128
01> 2882
00> 6139
01> 2907
00> 6147
01> 2938
00> 6150
01> 2943
00> 6136
01> 2897
00> 6094
01> 2853
00> 6118
01> 2871
00> 6151
01> 2932
00> 6175
01> 2984
00> 6141
01> 2932
00> 6105
01> 2861
00> 6126
01> 2907
00> 6149
01> 2926
00> 6147
01> 2934
00> 6142
01> 2910
00> 6128
01> 2855
00> 6119
01> 2861
00> 6139
01> 2934
00> 6153
01> 2956
00> 6158
01> 2925
00> 6142
01> 2893
00> 6143
01> 2891
00> 6145
01> 2938
00> 6176
01> 2960
00> 6164
01> 2947
00> 6148
01> 2891
00> 6162
01> 2905
00> 6168
01> 2949
00> 6196
01> 2976
00> 6181
01> 2930
00> 6164
01> 2894
00> 6171
01> 2919
00> 6168
01> 2944
00> 6183
01> 2977
00> 6209
01> 2984
00> 6202
01> 2928
00> 6173
01> 2916
00> 6150
01> 2926
00> 6191
01> 2961
00> 6202
01> 2963
00> 6195
01> 2918
00> 6199
01> 2931
00> 6198
01> 2964
00> 6203
01> 2995
00> 6199
01> 2979
00> 6181
01> 2908
00> 6191
01> 2929
00> 6185
01> 2969
00> 6158
01> 2971
00> 6176
01> 2951
00> 6201
01> 2919
00> 6183
01> 2934
00> 6188
01> 2961
00> 6203
01> 2981
00> 6172
01> 2941
00> 6174
01> 2904
00> 6178
01> 2931
00> 6181
01> 2969
00> 6219
01> 3006
00> 6214
01> 2986
00> 6178
01> 2918
00> 6186
01> 2946
00> 6200
01> 2973
00> 6219
01> 3019
00> 6202
01> 2970
00> 6186
01> 2904
00> 6198
01> 2951
00> 6220
01> 2998
00> 6240
01> 3028
00> 6226
01> 3006
00> 6207
01> 2957
00> 6203
01> 2954
00> 6223
01> 3006
00> 6236
01> 3041
00> 6228
01> 3014
00> 6233
01> 2968
00> 6216
01> 2964
00> 6229
01> 3003
00> 6255
01> 3048
00> 6264
01> 3026
00> 6228
01> 2956
00> 6218
01> 2966
00> 6248
01> 3027
00> 6275
01> 3081
00> 6267
01> 3049
00> 6225
01> 2972
00> 6224
01> 2973
00> 6245
01> 3026
00> 6259
01> 3068
00> 6256
01> 3051
00> 6225
01> 2984
00> 6233
01> 2992
00> 6263
01> 3048
00> 6282
01> 3094
00> 6268
01> 3063
00> 6232
01> 2972
00> 6229
01> 2973
00> 6251
01> 3027
00> 6266
01> 3074
00> 6261
01> 3054
00> 6235
01> 2983
00> 6231
01> 2986
00> 6248
01> 3041
00> 6274
01> 3062
00> 6253
01> 3021
00> 6218
01> 2959
00> 6216
01> 2966
00> 6247
01> 3029
00> 6272
01> 3071
00> 6254
01> 3026
00> 6218
01> 2949
00> 6217
01> 2957
00> 6236
01> 3000
00> 6253
01> 3029
00> 6245
01> 2996
00> 6211
01> 2933
00> 6208
01> 2941
00> 6232
01> 2989
00> 6246
01> 3022
00> 6235
01> 3005
00> 6208
01> 2943
00> 6214
01> 2961
00> 6241
01> 3008
00> 6255
01> 3034
00> 6241
01> 3010
00> 6207
01> 2939
00> 6208
01> 2931
00> 6229
01> 2984
00> 6252
01> 3033
00> 6244
01> 3011
00> 6213
01> 2943
00> 6213
01> 2946
00> 6236
01> 3003
00> 6246
01> 3028
00> 6233
01> 3001
00> 6213
01> 2941
00> 6214
01> 2949
00> 6230
01> 3004
00> 6240
01> 3036
00> 6223
01> 3006
00> 6206
01> 2928
00> 6204
01> 2943
00> 6234
01> 2996
00> 6247
01> 3029
00> 6234
01> 2997
00> 6210
01> 2931
00> 6209
01> 2936
00> 6233
01> 2993
00> 6248
01> 3025
00> 6231
01> 2997
00> 6200
01> 2928
00> 6206
01> 2935
00> 6226
01> 2985
00> 6233
01> 3015
00> 6221
01> 3006
00> 6194
01> 2936
00> 6196
01> 2936
00> 6217
01> 2992
00> 6221
01> 3016
00> 6207
01> 2983
00> 6174
01> 2906
00> 6171
01> 2901
00> 6188
01> 2954
00> 6207
01> 3005
00> 6201
01> 2989
00> 6171
01> 2917
00> 6169
01> 2917
00> 6201
01> 2981
00> 6227
01> 3026
00> 6223
01> 2996
00> 6186
01> 2925
00> 6180
01> 2939
00> 6213
01> 3009
00> 6243
01> 3061
00> 6246
01> 3054
00> 6217
01> 2981
00> 6211
01> 2973
00> 6237
01> 3048
00> 6266
01> 3103
00> 6278
01> 3088
00> 6249
01> 3026
00> 6256
01> 3039
00> 6289
01> 3106
00> 6309
01> 3152
00> 6301
01> 3137
00> 6275
01> 3058
00> 6270
01> 3046
00> 6294
01> 3099
00> 6319
01> 3139
00> 6304
01> 3117
00> 6271
01> 3041
00> 6267
01> 3031
00> 6286
01> 3080
00> 6298
01> 3115
00> 6293
01> 3097
00> 6270
01> 3018
00> 6264
01> 3006
00> 6288
01> 3068
00> 6308
01> 3114
00> 6291
01> 3086
00> 6264
01> 3003
00> 6264
01> 3006
00> 6284
01> 3063
00> 6300
01> 3098
00> 6306
01> 3082
00> 6274
01> 3003
00> 6273
01> 2997
00> 6301
01> 3066
00> 6319
01> 3103
00> 6308
01> 3086
00> 6272
01> 3003
00> 6267
01> 2993
00> 6291
01> 3049
00> 6312
01> 3094
00> 6308
01> 3091
00> 6273
01> 3006
00> 6272
01> 2992
00> 6302
01> 3057
00> 6316
01> 3096
00> 6316
01> 3087
00> 6289
01> 3015
00> 6274
01> 3000
00> 6303
01> 3051
00> 6325
01> 3099
00> 6314
01> 3080
00> 6274
01> 3001
00> 6265
01> 2993
00> 6298
01> 3056
00> 6318
01> 3103
00> 6318
01> 3097
00> 6293
01> 3027
00> 6281
01> 3004
00> 6303
01> 3048
00> 6323
01> 3088
00> 6313
01> 3078
00> 6283
01> 3006
00> 6279
01> 2998
00> 6303
01> 3049
00> 6320
01> 3093
00> 6311
01> 3082
00> 6274
01> 3006
00> 6272
01> 2996
00> 6296
01> 3051
00> 6314
01> 3087
00> 6313
01> 3078
00> 6283
01> 3004
00> 6274
01> 2990
00> 6291
01> 3036
00> 6315
01> 3081
00> 6314
01> 3081
00> 6281
01> 3003
00> 6272
01> 2981
00> 6286
01> 3034
00> 6304
01> 3074
00> 6299
01> 3064
00> 6263
01> 2986
00> 6256
01> 2969
00> 6280
01> 3024
00> 6296
01> 3071
00> 6288
01> 3054
00> 6253
01> 2974
00> 6246
01> 2966
00> 6271
01> 3016
00> 6296
01> 3065
00> 6296
01> 3069
00> 6261
01> 2993
00> 6249
01> 2978
00> 6266
01> 3026
00> 6293
01> 3071
00> 6290
01> 3064
00> 6251
01> 2993
00> 6251
01> 2976
00> 6280
01> 3030
00> 6296
01> 3071
00> 6286
01> 3061
00> 6255
01> 2994
00> 6249
01> 2976
00> 6274
01> 3030
00> 6298
01> 3084
00> 6296
01> 3084
00> 6258
01> 3003
00> 6243
01> 2969
00> 6263
01> 3015
00> 6292
01> 3071
00> 6293
01> 3072
00> 6265
01> 3005
00> 6261
01> 2995
00> 6281
01> 3049
00> 6306
01> 3090
00> 6296
01> 3074
00> 6262
01> 2993
00> 6251
01> 2968
00> 6273
01> 3021
00> 6299
01> 3078
00> 6299
01> 3087
00> 6264
01> 3011
00> 6253
01> 2984
00> 6274
01> 3032
00> 6302
01> 3086
00> 6306
01> 3086
00> 6273
01> 3009
00> 6270
01> 2980
00> 6281
01> 3023
00> 6296
01> 3066
00> 6299
01> 3060
00> 6266
01> 2983
00> 6256
01> 2964
00> 6278
01> 3018
00> 6296
01> 3064
00> 6294
01> 3058
00> 6264
01> 2986
00> 6256
01> 2965
00> 6276
01> 3012
00> 6297
01> 3060
00> 6295
01> 3053
00> 6262
01> 2974
00> 6252
01> 2952
00> 6281
01> 3016
00> 6299
01> 3059
00> 6288
01> 3053
00> 6263
01> 2991
00> 6260
01> 2976
00> 6283
01> 3024
00> 6302
01> 3064
00> 6295
01> 3056
00> 6263
01> 2988
00> 6251
01> 2964
00> 6273
01> 3013
00> 6289
01> 3059
00> 6296
01> 3063
00> 6266
01> 2989
00> 6246
01> 2958
00> 6270
01> 3004
00> 6292
01> 3056
00> 6289
01> 3056
00> 6254
01> 2979
00> 6243
01> 2945
00> 6264
01> 2994
00> 6288
01> 3053
00> 6286
01> 3051
00> 6254
01> 2976
00> 6242
01> 2946
00> 6266
01> 2999
00> 6291
01> 3046
00> 6293
01> 3048
00> 6261
01> 2983
00> 6248
01> 2950
00> 6267
01> 2991
00> 6281
01> 3036
00> 6286
01> 3048
00> 6259
01> 2978
00> 6241
01> 2945
00> 6260
01> 2995
00> 6283
01> 3049
00> 6289
01> 3049
00> 6259
01> 2973
00> 6244
01> 2941
00> 6269
01> 2994
00> 6294
01> 3052
00> 6294
01> 3058
00> 6260
01> 2983
00> 6246
01> 2935
00> 6265
01> 2980
00> 6287
01> 3039
00> 6286
01> 3044
00> 6251
01> 2968
00> 6239
01> 2935
00> 6264
01> 2976
00> 6288
01> 3031
00> 6289
01> 3038
00> 6256
01> 2969
00> 6246
01> 2934
00> 6262
01> 2980
00> 6286
01> 3034
00> 6291
01> 3045
00> 6257
01> 2971
00> 6238
01> 2934
00> 6266
01> 2982
00> 6286
01> 3025
00> 6283
01> 3025
00> 6257
01> 2952
00> 6247
01> 2919
00> 6269
01> 2969
00> 6289
01> 3018
00> 6288
01> 3024
00> 6254
01> 2958
00> 6241
01> 2919
00> 6265
01> 2972
00> 6292
01> 3024
00> 6302
01> 3036
00> 6274
01> 2965
00> 6258
01> 2924
00> 6274
01> 2961
00> 6298
01> 3012
00> 6309
01> 3034
00> 6277
01> 2965
00> 6262
01> 2929
00> 6274
01> 2968
00> 6294
01> 3013
00> 6297
01> 3021
00> 6268
01> 2956
00> 6253
01> 2917
00> 6279
01> 2969
00> 6298
01> 3016
00> 6301
01> 3030
00> 6280
01> 2971
00> 6269
01> 2937
00> 6290
01> 2979
00> 6313
01> 3026
00> 6314
01> 3038
00> 6286
01> 2980
00> 6278
01> 2948
00> 6295
01> 2987
00> 6308
01> 3027
00> 6313
01> 3037
00> 6286
01> 2979
00> 6276
01> 2944
00> 6288
01> 2983
00> 6305
01> 3029
00> 6308
01> 3034
00> 6285
01> 2979
00> 6264
01> 2939
00> 6284
01> 2975
00> 6316
01> 3026
00> 6322
01> 3039
00> 6287
01> 2971
00> 6273
01> 2936
00> 6286
01> 2984
00> 6311
01> 3036
00> 6312
01> 3047
00> 6284
01> 2974
00> 6266
01> 2926
00> 6273
01> 2961
00> 6303
01> 3009
00> 6313
01> 3023
00> 6285
01> 2964
00> 6283
01> 2939
00> 6298
01> 2989
00> 6314
01> 3027
00> 6319
01> 3041
00> 6288
01> 2974
00> 6276
01> 2934
00> 6299
01> 2979
00> 6321
01> 3041
00> 6320
01> 3048
00> 6286
01> 2978
00> 6263
01> 2937
00> 6266
01> 2966
00> 6286
01> 3016
00> 6295
01> 3033
00> 6263
01> 2959
00> 6235
01> 2906
00> 6251
01> 2949
00> 6263
01> 2996
00> 6268
01> 3010
00> 6239
01> 2948
00> 6218
01> 2908
00> 6233
01> 2947
00> 6254
01> 2989
00> 6264
01> 3007
00> 6238
01> 2943
00> 6212
01> 2889
00> 6222
01> 2927
00> 6238
01> 2975
00> 6243
01> 2991
00> 6217
01> 2931
00> 6209
01> 2896
00> 6223
01> 2928
00> 6238
01> 2969
00> 6239
01> 2986
00> 6210
01> 2931
00> 6201
01> 2891
00> 6223
01> 2937
00> 6247
01> 2986
00> 6247
01> 2996
00> 6224
01> 2939
00> 6203
01> 2895
00> 6211
01> 2920
00> 6222
01> 2964
00> 6230
01> 2974
00> 6208
01> 2912
00> 6190
01> 2873
00> 6211
01> 2921
00> 6223
01> 2960
00> 6232
01> 2978
00> 6211
01> 2918
00> 6208
01> 2883
00> 6219
01> 2919
00> 6221
01> 2967
00> 6226
01> 2988
00> 6195
01> 2925
00> 6163
01> 2861
00> 6171
01> 2896
00> 6206
01> 2973
00> 6214
01> 2991
00> 6177
01> 2929
00> 6152
01> 2876
00> 6171
01> 2913
00> 6193
01> 2965
00> 6204
01> 2986
00> 6176
01> 2923
00> 6154
01> 2872
00> 6174
01> 2915
00> 6191
01> 2968
00> 6206
01> 2986
00> 6181
01> 2926
00> 6153
01> 2867
00> 6166
01> 2906
00> 6193
01> 2963
00> 6198
01> 2976
00> 6174
01> 2919
00> 6162
01> 2884
00> 6173
01> 2909
00> 6199
01> 2956
00> 6209
01> 2980
00> 6178
01> 2921
00> 6145
01> 2856
00> 6163
01> 2899
00> 6207
01> 2978
00> 6220
01> 3004
00> 6198
01> 2944
00> 6169
01> 2886
00> 6174
01> 2919
00> 6201
01> 2973
00> 6208
01> 2989
00> 6177
01> 2924
00> 6151
01> 2863
00> 6176
01> 2910
00> 6201
01> 2972
00> 6208
01> 2988
00> 6184
01> 2926
00> 6169
01> 2885
00> 6178
01> 2912
00> 6200
01> 2971
00> 6210
01> 2998
00> 6184
01> 2935
00> 6169
01> 2879
00> 6186
01> 2922
00> 6206
01> 2984
00> 6205
01> 2988
00> 6183
01> 2925
00> 6166
01> 2874
00> 6183
01> 2908
00> 6212
01> 2970
00> 6218
01> 2995
00> 6186
01> 2929
00> 6171
01> 2881
00> 6193
01> 2924
00> 6211
01> 2983
00> 6214
01> 3001
00> 6193
01> 2944
00> 6172
01> 2889
00> 6182
01> 2913
00> 6207
01> 2963
00> 6223
01> 2983
00> 6196
01> 2934
00> 6174
01> 2891
00> 6189
01> 2923
00> 6204
01> 2967
00> 6205
01> 2986
00> 6188
01> 2938
00> 6169
01> 2886
00> 6179
01> 2914
00> 6199
01> 2968
00> 6215
01> 3000
00> 6190
01> 2950
00> 6168
01> 2901
00> 6181
01> 2931
00> 6204
01> 2982
00> 6223
01> 3009
00> 6213
01> 2956
00> 6181
01> 2906
00> 6187
01> 2938
00> 6216
01> 2993
00> 6224
01> 3013
00> 6193
01> 2958
00> 6169
01> 2893
00> 6191
01> 2932
00> 6223
01> 2988
00> 6235
01> 3007
00> 6199
01> 2943
00> 6171
01> 2876
00> 6199
01> 2917
00> 6224
01> 2981
00> 6235
01> 3009
00> 6219
01> 2952
00> 6192
01> 2886
00> 6202
01> 2919
00> 6226
01> 2977
00> 6232
01> 2999
00> 6214
01> 2949
00> 6193
01> 2898
00> 6213
01> 2936
00> 6234
01> 2986
00> 6239
01> 3014
00> 6221
01> 2969
00> 6188
01> 2898
00> 6196
01> 2912
00> 6224
01> 2965
00> 6235
01> 2998
00> 6206
01> 2947
00> 6183
01> 2900
00> 6196
01> 2930
00> 6224
01> 2986
00> 6239
01> 3012
00> 6219
01> 2960
00> 6196
01> 2904
00> 6204
01> 2924
00> 6225
01> 2979
00> 6241
01> 3004
00> 6221
01> 2954
00> 6198
01> 2900
00> 6200
01> 2927
00> 6228
01> 2988
00> 6244
01> 3014
00> 6222
01> 2956
00> 6198
01> 2894
00> 6208
01> 2930
00> 6230
01> 2987
00> 6245
01> 3019
00> 6227
01> 2973
00> 6201
01> 2909
00> 6208
01> 2933
00> 6227
01> 2986
00> 6238
01> 3015
00> 6222
01> 2973
00> 6198
01> 2913
00> 6212
01> 2939
00> 6231
01> 2991
00> 6238
01> 3010
00> 6221
01> 2969
00> 6193
01> 2906
00> 6206
01> 2934
00> 6238
01> 2990
00> 6259
01> 3025
00> 6233
01> 2974
00> 6201
01> 2904
00> 6211
01> 2926
00> 6229
01> 2983
00> 6249
01> 3011
00> 6234
01> 2969
00> 6196
01> 2900
00> 6209
01> 2931
00> 6245
01> 3004
00> 6257
01> 3036
00> 6229
01> 2981
00> 6201
01> 2907
00> 6213
01> 2937
00> 6238
01> 2993
00> 6246
01> 3016
00> 6224
01> 2968
00> 6214
01> 2920
00> 6219
01> 2926
00> 6227
01> 2972
00> 6234
01> 3007
00> 6214
01> 2968
00> 6179
01> 2898
00> 6177
01> 2916
00> 6201
01> 2982
00> 6218
01> 3028
00> 6190
01> 2980
00> 6153
01> 2906
00> 6146
01> 2910
00> 6171
01> 2974
00> 6193
01> 3011
00> 6173
01> 2969
00> 6147
01> 2903
00> 6156
01> 2916
00> 6173
01> 2963
00> 6193
01> 3002
00> 6178
01> 2965
00> 6147
01> 2896
00> 6154
01> 2913
00> 6178
01> 2970
00> 6194
01> 3008
00> 6172
01> 2962
00> 6151
01> 2895
00> 6161
01> 2911
00> 6186
01> 2966
00> 6195
01> 2998
00> 6175
01> 2961
00> 6143
01> 2886
00> 6148
01> 2911
00> 6183
01> 2977
00> 6199
01> 3009
00> 6179
01> 2963
00> 6145
01> 2884
00> 6161
01> 2915
00> 6193
01> 2980
00> 6208
01> 3013
00> 6192
01> 2968
00> 6163
01> 2902
00> 6163
01> 2914
00> 6194
01> 2967
00> 6210
01> 3009
00> 6185
01> 2973
00> 6153
01> 2901
00> 6156
01> 2916
00> 6187
01> 2979
00> 6195
01> 3008
00> 6175
01> 2966
00> 6156
01> 2904
00> 6174
01> 2932
00> 6195
01> 2984
00> 6206
01> 3012
00> 6183
01> 2967
00> 6152
01> 2901
00> 6168
01> 2924
00> 6186
01> 2977
00> 6209
01> 3026
00> 6198
01> 2989
00> 6159
01> 2904
00> 6161
01> 2914
00> 6183
01> 2969
00> 6198
01> 3004
00> 6181
01> 2966
00> 6157
01> 2903
00> 6163
01> 2918
00> 6181
01> 2965
00> 6206
01> 3015
00> 6189
01> 2986
00> 6161
01> 2914
00> 6160
01> 2919
00> 6185
01> 2971
00> 6205
01> 3017
00> 6190
01> 2983
00> 6151
01> 2908
00> 6158
01> 2925
00> 6186
01> 2979
00> 6197
01> 3006
00> 6179
01> 2966
00> 6163
01> 2905
00> 6168
01> 2918
00> 6179
01> 2971
00> 6189
01> 3004
00> 6174
01> 2977
00> 6145
01> 2913
00> 6159
01> 2924
00> 6184
01> 2981
00> 6198
01> 3011
00> 6183
01> 2989
00> 6158
01> 2921
00> 6166
01> 2932
00> 6180
01> 2978
00> 6198
01> 3010
00> 6190
01> 2983
00> 6168
01> 2921
00> 6166
01> 2928
00> 6184
01> 2980
00> 6198
01> 3021
00> 6193
01> 2989
00> 6161
01> 2914
00> 6164
01> 2921
00> 6191
01> 2975
00> 6205
01> 3015
00> 6191
01> 2987
00> 6162
01> 2921
00> 6166
01> 2931
00> 6188
01> 2982
00> 6204
01> 3006
00> 6194
01> 2973
00> 6159
01> 2899
00> 6156
01> 2908
00> 6169
01> 2951
00> 6197
01> 3008
00> 6184
01> 2991
00> 6154
01> 2915
00> 6155
01> 2912
00> 6188
01> 2978
00> 6212
01> 3033
00> 6188
01> 2996
00> 6154
01> 2919
00> 6161
01> 2930
00> 6173
01> 2963
00> 6182
01> 2988
00> 6177
01> 2982
00> 6158
01> 2919
00> 6164
01> 2926
00> 6168
01> 2972
00> 6183
01> 3004
00> 6174
01> 2967
00> 6146
01> 2893
00> 6144
01> 2901
00> 6169
01> 2965
00> 6198
01> 3023
00> 6191
01> 2996
00> 6153
01> 2916
00> 6146
01> 2916
00> 6173
01> 2966
00> 6196
01> 3018
00> 6180
01> 2993
00> 6149
01> 2913
00> 6156
01> 2918
00> 6172
01> 2972
00> 6178
01> 2999
00> 6183
01> 2993
00> 6157
01> 2928
00> 6154
01> 2930
00> 6171
01> 2979
00> 6199
01> 3023
00> 6185
01> 2997
00> 6141
01> 2919
00> 6144
01> 2925
00> 6168
01> 2984
00> 6194
01> 3029
00> 6186
01> 3004
00> 6148
01> 2923
00> 6150
01> 2928
00> 6168
01> 2981
00> 6185
01> 3021
00> 6184
01> 3001
00> 6158
01> 2936
00> 6154
01> 2938
00> 6171
01> 2984
00> 6184
01> 3026
00> 6166
01> 3014
00> 6131
01> 2931
00> 6133
01> 2926
00> 6155
01> 2983
00> 6184
01> 3032
00> 6173
01> 3007
00> 6137
01> 2924
00> 6131
01> 2913
00> 6152
01> 2972
00> 6173
01> 3024
00> 6169
01> 3006
00> 6133
01> 2922
00> 6134
01> 2918
00> 6154
01> 2974
00> 6172
01> 3009
00> 6166
01> 2990
00> 6133
01> 2919
00> 6133
01> 2926
00> 6160
01> 2986
00> 6176
01> 3021
00> 6171
01> 3006
00> 6141
01> 2931
00> 6136
01> 2931
00> 6160
01> 2985
00> 6176
01> 3024
00> 6168
01> 3004
00> 6124
01> 2928
00> 6124
01> 2925
00> 6157
01> 2980
00> 6176
01> 3026
00> 6173
01> 3009
00> 6134
01> 2923
00> 6129
01> 2913
00> 6160
01> 2979
00> 6191
01> 3037
00> 6184
01> 3014
00> 6146
01> 2931
00> 6143
01> 2924
00> 6163
01> 2981
00> 6178
01> 3023
00> 6175
01> 3011
00> 6149
01> 2940
00> 6149
01> 2937
00> 6172
01> 2989
00> 6189
01> 3028
00> 6183
01> 3013
00> 6152
01> 2938
00> 6149
01> 2935
00> 6170
01> 2989
00> 6188
01> 3028
00> 6188
01> 3018
00> 6159
01> 2943
00> 6149
01> 2924
00> 6169
01> 2982
00> 6192
01> 3031
00> 6182
01> 3010
00> 6144
01> 2935
00> 6142
01> 2928
00> 6173
01> 2986
00> 6193
01> 3028
00> 6177
01> 3003
00> 6148
01> 2931
00> 6144
01> 2922
00> 6170
01> 2978
00> 6183
01> 3014
00> 6176
01> 2996
00> 6146
01> 2934
00> 6151
01> 2936
00> 6172
01> 2986
00> 6194
01> 3033
00> 6185
01> 3017
00> 6153
01> 2933
00> 6144
01> 2924
00> 6168
01> 2984
00> 6191
01> 3029
00> 6193
01> 3025
00> 6163
01> 2951
00> 6156
01> 2943
00> 6173
01> 2991
00> 6189
01> 3025
00> 6175
01> 3003
00> 6148
01> 2934
00> 6145
01> 2926
00> 6174
01> 2988
00> 6194
01> 3026
00> 6190
01> 3019
00> 6156
01> 2947
00> 6145
01> 2923
00> 6171
01> 2974
00> 6195
01> 3030
00> 6189
01> 3025
00> 6164
01> 2964
00> 6161
01> 2949
00> 6197
01> 3006
00> 6221
01> 3050
00> 6195
01> 3029
00> 6151
01> 2954
00> 6147
01> 2935
00> 6171
01> 2986
00> 6198
01> 3033
00> 6192
01> 3021
00> 6155
01> 2949
00> 6156
01> 2933
00> 6179
01> 2982
00> 6203
01> 3031
00> 6203
01> 3027
00> 6153
01> 2939
00> 6141
01> 2917
00> 6168
01> 2977
00> 6190
01> 3033
00> 6187
01> 3031
00> 6149
01> 2951
00> 6140
01> 2929
00> 6169
01> 2982
00> 6196
01> 3028
00> 6199
01> 3029
00> 6168
01> 2953
00> 6154
01> 2933
00> 6172
01> 2986
00> 6193
01> 3041
00> 6191
01> 3033
00> 6164
01> 2957
00> 6162
01> 2943
00> 6179
01> 2993
00> 6203
01> 3043
00> 6198
01> 3038
00> 6156
01> 2958
00> 6145
01> 2938
00> 6173
01> 2992
00> 6198
01> 3039
00> 6199
01> 3026
00> 6167
01> 2944
00> 6154
01> 2930
00> 6176
01> 2991
00> 6192
01> 3033
00> 6182
01> 3019
00> 6151
01> 2944
00> 6144
01> 2925
00> 6167
01> 2983
00> 6198
01> 3040
00> 6197
01> 3046
00> 6162
01> 2968
00> 6147
01> 2939
00> 6167
01> 2989
00> 6193
01> 3038
00> 6193
01> 3036
00> 6154
01> 2949
00> 6145
01> 2923
00> 6163
01> 2976
00> 6186
01> 3019
00> 6189
01> 3016
00> 6163
01> 2953
00> 6158
01> 2938
00> 6178
01> 2994
00> 6199
01> 3043
00> 6196
01> 3033
00> 6153
01> 2944
00> 6136
01> 2910
00> 6164
01> 2964
00> 6194
01> 3014
00> 6188
01> 3014
00> 6156
01> 2949
00> 6150
01> 2930
00> 6178
01> 2982
00> 6203
01> 3031
00> 6201
01> 3028
00> 6161
01> 2956
00> 6146
01> 2934
00> 6168
01> 2986
00> 6189
01> 3031
00> 6192
01> 3024
00> 6159
01> 2951
00> 6148
01> 2931
00> 6171
01> 2989
00> 6191
01> 3037
00> 6194
01> 3041
00> 6162
01> 2965
00> 6148
01> 2929
00> 6171
01> 2976
00> 6194
01> 3024
00> 6198
01> 3029
00> 6163
01> 2952
00> 6151
01> 2927
00> 6175
01> 2981
00> 6200
01> 3032
00> 6198
01> 3031
00> 6169
01> 2958
00> 6158
01> 2934
00> 6181
01> 2986
00> 6199
01> 3032
00> 6204
01> 3036
00> 6182
01> 2971
00> 6168
01> 2938
00> 6183
01> 2988
00> 6209
01> 3039
00> 6202
01> 3039
00> 6173
01> 2967
00> 6163
01> 2940
00> 6180
01> 2987
00> 6201
01> 3035
00> 6198
01> 3033
00> 6172
01> 2964
00> 6166
01> 2939
00> 6184
01> 2985
00> 6204
01> 3039
00> 6206
01> 3049
00> 6179
01> 2976
00> 6170
01> 2943
00> 6191
01> 2996
00> 6213
01> 3054
00> 6210
01> 3061
00> 6183
01> 2988
00> 6162
01> 2951
00> 6188
01> 3003
00> 6218
01> 3059
00> 6219
01> 3065
00> 6189
01> 2991
00> 6174
01> 2956
00> 6184
01> 2992
00> 6197
01> 3038
00> 6199
01> 3049
00> 6174
01> 2984
00> 6158
01> 2944
00> 6176
01> 2991
00> 6205
01> 3048
00> 6208
01> 3054
00> 6176
01> 2973
00> 6160
01> 2936
00> 6178
01> 2992
00> 6202
01> 3050
00> 6208
01> 3061
00> 6171
01> 2978
00> 6151
01> 2943
00> 6172
01> 2997
00> 6191
01> 3041
00> 6195
01> 3049
00> 6161
01> 2984
00> 6136
01> 2944
00> 6158
01> 2990
00> 6192
01> 3044
00> 6195
01> 3048
00> 6161
01> 2973
00> 6145
01> 2927
00> 6168
01> 2984
00> 6194
01> 3051
00> 6199
01> 3062
00> 6161
01> 2976
00> 6144
01> 2939
00> 6170
01> 2997
00> 6194
01> 3049
00> 6197
01> 3055
00> 6168
01> 2981
00> 6145
01> 2939
00> 6164
01> 2986
00> 6186
01> 3040
00> 6200
01> 3059
00> 6169
01> 2995
00> 6151
01> 2953
00> 6171
01> 2990
00> 6193
01> 3043
00> 6204
01> 3059
00> 6173
01> 2994
00> 6149
01> 2953
00> 6169
01> 2997
00> 6194
01> 3049
00> 6193
01> 3054
00> 6158
01> 2979
00> 6146
01> 2938
00> 6172
01> 2988
00> 6198
01> 3050
00> 6203
01> 3054
00> 6177
01> 2989
00> 6160
01> 2951
00> 6177
01> 3007
00> 6200
01> 3062
00> 6211
01> 3077
00> 6180
01> 3009
00> 6158
01> 2960
00> 6181
01> 3001
00> 6208
01> 3060
00> 6213
01> 3078
00> 6188
01> 3013
00> 6156
01> 2960
00> 6168
01> 2996
00> 6192
01> 3046
00> 6209
01> 3074
00> 6182
01> 3013
00> 6153
01> 2962
00> 6164
01> 3000
00> 6189
01> 3048
00> 6192
01> 3060
00> 6164
01> 3008
00> 6148
01> 2973
00> 6173
01> 3013
00> 6200
01> 3071
00> 6205
01> 3081
00> 6171
01> 3007
00> 6154
01> 2961
00> 6166
01> 3001
00> 6189
01> 3057
00> 6193
01> 3069
00> 6163
01> 3003
00> 6154
01> 2959
00> 6173
01> 3003
00> 6197
01> 3059
00> 6210
01> 3082
00> 6180
01> 3016
00> 6157
01> 2968
00> 6172
01> 3009
00> 6191
01> 3062
00> 6196
01> 3075
00> 6172
01> 3009
00> 6165
01> 2966
00> 6179
01> 3006
00> 6189
01> 3044
00> 6192
01> 3059
00> 6170
01> 3002
00> 6144
01> 2951
00> 6154
01> 2991
00> 6176
01> 3056
00> 6179
01> 3065
00> 6153
01> 2997
00> 6125
01> 2947
00> 6138
01> 2983
00> 6171
01> 3041
00> 6181
01> 3054
00> 6148
01> 2991
00> 6129
01> 2949
00> 6145
01> 2985
00> 6169
01> 3031
00> 6175
01> 3042
00> 6147
01> 2976
00> 6131
01> 2934
00> 6148
01> 2979
00> 6168
01> 3037
00> 6178
01> 3056
00> 6149
01> 2994
00> 6123
01> 2941
00> 6141
01> 2983
00> 6172
01> 3035
00> 6185
01> 3052
00> 6161
01> 2993
00> 6132
01> 2942
00> 6141
01> 2973
00> 6168
01> 3021
00> 6179
01> 3053
00> 6154
01> 3000
00> 6131
01> 2943
00> 6148
01> 2978
00> 6173
01> 3027
00> 6183
01> 3057
00> 6154
01> 3004
00> 6129
01> 2946
00> 6151
01> 2989
00> 6179
01> 3048
00> 6186
01> 3063
00> 6164
01> 3003
00> 6144
01> 2949
00> 6160
01> 2984
00> 6176
01> 3034
00> 6182
01> 3051
00> 6157
01> 2993
00> 6139
01> 2943
00> 6161
01> 2981
00> 6183
01> 3034
00> 6184
01> 3051
00> 6154
01> 2988
00> 6137
01> 2939
00> 6149
01> 2972
00> 6178
01> 3019
00> 6192
01> 3041
00> 6161
01> 2984
00> 6143
01> 2947
00> 6152
01> 2988
00> 6175
01> 3040
00> 6191
01> 3069
00> 6161
01> 3007
00> 6140
01> 2946
00> 6154
01> 2985
00> 6177
01> 3045
00> 6183
01> 3067
00> 6154
01> 3003
00> 6141
01> 2954
00> 6159
01> 3003
00> 6189
01> 3055
00> 6191
01> 3059
00> 6150
01> 2994
00> 6121
01> 2934
00> 6133
01> 2964
00> 6151
01> 3014
00> 6153
01> 3037
00> 6123
01> 2985
00> 6098
01> 2924
00> 6107
01> 2951
00> 6124
01> 3007
00> 6141
01> 3037
00> 6123
01> 2981
00> 6099
01> 2918
00> 6115
01> 2955
00> 6134
01> 3005
00> 6151
01> 3036
00> 6126
01> 2984
00> 6088
01> 2919
00> 6105
01> 2961
00> 6136
01> 3022
00> 6149
01> 3044
00> 6128
01> 2986
00> 6104
01> 2926
00> 6116
01> 2958
00> 6145
01> 3020
00> 6155
01> 3044
00> 6122
01> 2980
00> 6098
01> 2920
00> 6113
01> 2952
00> 6134
01> 3006
00> 6147
01> 3038
00> 6128
01> 2997
00> 6108
01> 2942
00> 6113
01> 2961
00> 6138
01> 3013
00> 6144
01> 3039
00> 6118
01> 2984
00> 6092
01> 2921
00> 6102
01> 2956
00> 6131
01> 3009
00> 6143
01> 3034
00> 6121
01> 2988
00> 6098
01> 2935
00> 6109
01> 2973
00> 6134
01> 3029
00> 6150
01> 3054
00> 6128
01> 3000
00> 6104
01> 2938
00> 6113
01> 2964
00> 6132
01> 3020
00> 6148
01> 3047
00> 6127
01> 3006
00> 6096
01> 2940
00> 6103
01> 2968
00> 6134
01> 3034
00> 6149
01> 3056
00> 6129
01> 3001
00> 6106
01> 2945
00> 6116
01> 2976
00> 6137
01> 3029
00> 6147
01> 3045
00> 6112
01> 2984
00> 6086
01> 2927
00> 6109
01> 2976
00> 6139
01> 3042
00> 6149
01> 3064
00> 6122
01> 3008
00> 6093
01> 2942
00> 6109
01> 2973
00> 6134
01> 3029
00> 6145
01> 3048
00> 6123
01> 2999
00> 6094
01> 2933
00> 6108
01> 2967
00> 6136
01> 3029
00> 6153
01> 3061
00> 6129
01> 3016
00> 6094
01> 2953
00> 6095
01> 2969
00> 6120
01> 3019
00> 6138
01> 3054
00> 6126
01> 3016
00> 6101
01> 2952
00> 6109
01> 2978
00> 6129
01> 3035
00> 6139
01> 3064
00> 6121
01> 3019
00> 6104
01> 2956
00> 6107
01> 2979
00> 6124
01> 3028
00> 6147
01> 3062
00> 6132
01> 3015
00> 6108
01> 2954
00> 6113
01> 2979
00> 6131
01> 3026
00> 6140
01> 3051
00> 6116
01> 3001
00> 6095
01> 2936
00> 6099
01> 2956
00> 6121
01> 3014
00> 6140
01> 3042
00> 6124
01> 2999
00> 6097
01> 2935
00> 6108
01> 2959
00> 6129
01> 3017
00> 6136
01> 3046
00> 6112
01> 2992
00> 6082
01> 2919
00> 6095
01> 2950
00> 6129
01> 3015
00> 6143
01> 3045
00> 6124
01> 2991
00> 6091
01> 2919
00> 6103
01> 2941
00> 6130
01> 3000
00> 6151
01> 3038
00> 6138
01> 3009
00> 6109
01> 2950
00> 6116
01> 2962
00> 6138
01> 3009
00> 6148
01> 3038
00> 6128
01> 2999
00> 6105
01> 2936
00> 6115
01> 2962
00> 6134
01> 3007
00> 6146
01> 3039
00> 6123
01> 2990
00> 6092
01> 2914
00> 6100
01> 2940
00> 6127
01> 2998
00> 6146
01> 3038
00> 6128
01> 2999
00> 6098
01> 2921
00> 6111
01> 2946
00> 6132
01> 3004
00> 6148
01> 3046
00> 6128
01> 3006
00> 6092
01> 2931
00> 6099
01> 2949
00> 6129
01> 3002
00> 6142
01> 3030
00> 6128
01> 3004
00> 6096
01> 2934
00> 6104
01> 2947
00> 6127
01> 3003
00> 6148
01> 3044
00> 6136
01> 3018
00> 6109
01> 2953
00> 6112
01> 2960
00> 6130
01> 3008
00> 6147
01> 3042
00> 6126
01> 3008
00> 6094
01> 2934
00> 6102
01> 2946
00> 6128
01> 2996
00> 6143
01> 3028
00> 6124
01> 2995
00> 6099
01> 2931
00> 6110
01> 2948
00> 6132
01> 3003
00> 6151
01> 3037
00> 6133
01> 2998
00> 6103
01> 2934
00> 6097
01> 2949
00> 6116
01> 3000
00> 6138
01> 3034
00> 6129
01> 3001
00> 6099
01> 2931
00> 6109
01> 2946
00> 6124
01> 3001
00> 6139
01> 3038
00> 6134
01> 3003
00> 6107
01> 2925
00> 6110
01> 2936
00> 6129
01> 2993
00> 6141
01> 3020
00> 6127
01> 2978
00> 6097
01> 2908
00> 6104
01> 2923
00> 6129
01> 2980
00> 6150
01> 3025
00> 6143
01> 2995
00> 6106
01> 2919
00> 6113
01> 2931
00> 6143
01> 2998
00> 6158
01> 3033
00> 6134
01> 2991
00> 6098
01> 2924
00> 6107
01> 2941
00> 6133
01> 2991
00> 6150
01> 3020
00> 6136
01> 2988
00> 6108
01> 2923
00> 6111
01> 2939
00> 6134
01> 2991
00> 6152
01> 3028
00> 6138
01> 2995
00> 6103
01> 2926
00> 6112
01> 2944
00> 6136
01> 2999
00> 6148
01> 3026
00> 6138
01> 2994
00> 6109
01> 2929
00> 6114
01> 2941
00> 6138
01> 2997
00> 6151
01> 3036
00> 6129
01> 2995
00> 6102
01> 2934
00> 6106
01> 2943
00> 6128
01> 2990
00> 6143
01> 3029
00> 6135
01> 3000
00> 6104
01> 2933
00> 6111
01> 2946
00> 6134
01> 2996
00> 6143
01> 3021
00> 6129
01> 2995
00> 6101
01> 2923
00> 6103
01> 2935
00> 6138
01> 3003
00> 6164
01> 3051
00> 6149
01> 3023
00> 6124
01> 2953
00> 6124
01> 2954
00> 6144
01> 3002
00> 6155
01> 3037
00> 6139
01> 3006
00> 6113
01> 2934
00> 6119
01> 2953
00> 6139
01> 3008
00> 6154
01> 3046
00> 6144
01> 3016
00> 6112
01> 2945
00> 6116
01> 2954
00> 6141
01> 3013
00> 6157
01> 3049
00> 6141
01> 3018
00> 6109
01> 2939
00> 6112
01> 2942
00> 6140
01> 2996
00> 6153
01> 3033
00> 6143
01> 3008
00> 6112
01> 2944
00> 6114
01> 2953
00> 6145
01> 3011
00> 6168
01> 3046
00> 6152
01> 3021
00> 6114
01> 2944
00> 6120
01> 2953
00> 6145
01> 3015
00> 6167
01> 3049
00> 6150
01> 3026
00> 6112
01> 2953
00> 6109
01> 2952
00> 6135
01> 3004
00> 6164
01> 3048
00> 6151
01> 3028
00> 6113
01> 2951
00> 6116
01> 2958
00> 6141
01> 3018
00> 6159
01> 3053
00> 6139
01> 3021
00> 6103
01> 2939
00> 6097
01> 2928
00> 6114
01> 2969
00> 6131
01> 3001
00> 6124
01> 2969
00> 6082
01> 2878
00> 6070
01> 2864
00> 6093
01> 2918
00> 6113
01> 2954
00> 6102
01> 2930
00> 6068
01> 2846
00> 6066
01> 2849
00> 6086
01> 2906
00> 6106
01> 2953
00> 6099
01> 2945
00> 6073
01> 2879
00> 6079
01> 2884
00> 6109
01> 2949
00> 6136
01> 3001
00> 6128
01> 2988
00> 6096
01> 2918
00> 6097
01> 2923
00> 6119
01> 2977
00> 6144
01> 3022
00> 6140
01> 3009
00> 6099
01> 2936
00> 6093
01> 2929
00> 6114
01> 2980
00> 6144
01> 3023
00> 6129
01> 3007
00> 6088
01> 2928
00> 6086
01> 2913
00> 6113
01> 2956
00> 6126
01> 2982
00> 6119
01> 2946
00> 6084
01> 2864
00> 6079
01> 2854
00> 6102
01> 2904
00> 6119
01> 2938
00> 6113
01> 2920
00> 6075
01> 2841
00> 6071
01> 2830
00> 6101
01> 2893
00> 6121
01> 2939
00> 6116
01> 2926
00> 6075
01> 2848
00> 6071
01> 2839
00> 6090
01> 2885
00> 6106
01> 2918
00> 6103
01> 2906
00> 6068
01> 2834
00> 6067
01> 2824
00> 6096
01> 2875
00> 6114
01> 2921
00> 6110
01> 2908
00> 6076
01> 2834
00> 6071
01> 2830
00> 6098
01> 2881
00> 6119
01> 2918
00> 6112
01> 2906
00> 6079
01> 2829
00> 6075
01> 2823
00> 6098
01> 2882
00> 6114
01> 2927
00> 6103
01> 2906
00> 6071
01> 2833
00> 6072
01> 2822
00> 6102
01> 2886
00> 6127
01> 2930
00> 6117
01> 2918
00> 6081
01> 2844
00> 6080
01> 2837
00> 6103
01> 2886
00> 6124
01> 2933
00> 6115
01> 2923
00> 6091
01> 2856
00> 6092
01> 2841
00> 6109
01> 2886
00> 6121
01> 2921
00> 6110
01> 2898
00> 6077
01> 2816
00> 6072
01> 2794
00> 6095
01> 2839
00> 6113
01> 2879
00> 6104
01> 2856
00> 6069
01> 2774
00> 6060
01> 2760
00> 6084
01> 2816
00> 6109
01> 2867
00> 6107
01> 2859
00> 6078
01> 2790
00> 6077
01> 2779
00> 6102
01> 2829
00> 6123
01> 2871
00> 6125
01> 2865
00> 6094
01> 2795
00> 6091
01> 2781
00> 6116
01> 2838
00> 6134
01> 2873
00> 6129
01> 2860
00> 6094
01> 2789
00> 6089
01> 2778
00> 6113
01> 2836
00> 6138
01> 2888
00> 6139
01> 2894
00> 6107
01> 2819
00> 6098
01> 2792
00> 6118
01> 2834
00> 6132
01> 2875
00> 6130
01> 2872
00> 6102
01> 2803
00> 6095
01> 2797
00> 6114
01> 2858
00> 6138
01> 2901
00> 6139
01> 2899
00> 6109
01> 2828
00> 6101
01> 2809
00> 6125
01> 2860
00> 6148
01> 2905
00> 6146
01> 2899
00> 6112
01> 2821
00> 6108
01> 2805
00> 6134
01> 2864
00> 6154
01> 2910
00> 6149
01> 2907
00> 6121
01> 2843
00> 6118
01> 2829
00> 6143
01> 2883
00> 6160
01> 2924
00> 6158
01> 2914
00> 6128
01> 2843
00> 6120
01> 2823
00> 6138
01> 2867
00> 6166
01> 2923
00> 6173
01> 2930
00> 6155
01> 2868
00> 6166
01> 2848
00> 6206
01> 2911
00> 6226
01> 2965
00> 6228
01> 2961
00> 6196
01> 2905
00> 6175
01> 2895
00> 6210
01> 2978
00> 6261
01> 3069
00> 6258
01> 3088
00> 6251
01> 3081
00> 6273
01> 3138
00> 6326
01> 3265
00> 6375
01> 3389
00> 6409
01> 3461
00> 6401
01> 3456
00> 6411
01> 3484
00> 6458
01> 3589
00> 6496
01> 3677
00> 6519
01> 3704
00> 6506
01> 3664
00> 6498
01> 3665
00> 6514
01> 3713
00> 6529
01> 3751
00> 6520
01> 3732
00> 6484
01> 3650
00> 6465
01> 3609
00> 6463
01> 3616
00> 6471
01> 3621
00> 6456
01> 3594
00> 6400
01> 3501
00> 6369
01> 3454
00> 6375
01> 3478
00> 6389
01> 3498
00> 6378
01> 3473
00> 6324
01> 3381
00> 6300
01> 3339
00> 6309
01> 3357
00> 6319
01> 3379
00> 6309
01> 3361
00> 6267
01> 3279
00> 6254
01> 3245
00> 6269
01> 3274
00> 6283
01> 3306
00> 6279
01> 3296
00> 6243
01> 3213
00> 6229
01> 3184
00> 6247
01> 3221
00> 6264
01> 3257
00> 6257
01> 3248
00> 6224
01> 3174
00> 6211
01> 3136
00> 6229
01> 3164
00> 6246
01> 3196
00> 6243
01> 3196
00> 6209
01> 3124
00> 6193
01> 3093
00> 6206
01> 3133
00> 6225
01> 3167
00> 6221
01> 3147
00> 6187
01> 3071
00> 6180
01> 3052
00> 6202
01> 3093
00> 6217
01> 3124
00> 6206
01> 3118
00> 6174
01> 3036
00> 6166
01> 3013
00> 6184
01> 3055
00> 6199
01> 3079
00> 6197
01> 3074
00> 6171
01> 3008
00> 6155
01> 2973
00> 6167
01> 3006
00> 6185
01> 3041
00> 6179
01> 3031
00> 6151
01> 2961
00> 6138
01> 2933
00> 6151
01> 2974
00> 6168
01> 3016
00> 6166
01> 3007
00> 6133
01> 2930
00> 6121
01> 2904
00> 6141
01> 2953
00> 6160
01> 2986
00> 6163
01> 2983
00> 6131
01> 2908
00> 6112
01> 2879
00> 6129
01> 2923
00> 6147
01> 2965
00> 6146
01> 2965
00> 6120
01> 2902
00> 6114
01> 2869
00> 6129
01> 2905
00> 6149
01> 2936
00> 6152
01> 2931
00> 6124
01> 2863
00> 6114
01> 2840
00> 6129
01> 2889
00> 6146
01> 2931
00> 6150
01> 2933
00> 6119
01> 2860
00> 6103
01> 2828
00> 6121
01> 2875
00> 6146
01> 2923
00> 6141
01> 2924
00> 6114
01> 2858
00> 6100
01> 2824
00> 6119
01> 2873
00> 6138
01> 2916
00> 6138
01> 2911
00> 6119
01> 2851
00> 6113
01> 2829
00> 6128
01> 2873
00> 6145
01> 2916
00> 6145
01> 2922
00> 6122
01> 2857
00> 6111
01> 2825
00> 6128
01> 2869
00> 6149
01> 2911
00> 6151
01> 2919
00> 6125
01> 2855
00> 6109
01> 2816
00> 6123
01> 2861
00> 6144
01> 2907
00> 6146
01> 2910
00> 6119
01> 2843
00> 6106
01> 2803
00> 6127
01> 2849
00> 6150
01> 2902
00> 6158
01> 2918
00> 6130
01> 2853
00> 6109
01> 2816
00> 6124
01> 2851
00> 6142
01> 2896
00> 6144
01> 2901
00> 6119
01> 2843
00> 6107
01> 2804
00> 6120
01> 2841
00> 6143
01> 2895
00> 6145
01> 2911
00> 6118
01> 2844
00> 6104
01> 2811
00> 6124
01> 2853
00> 6140
01> 2896
00> 6144
01> 2906
00> 6123
01> 2854
00> 6114
01> 2823
00> 6142
01> 2854
00> 6171
01> 2913
00> 6160
01> 2934
00> 6121
01> 2884
00> 6111
01> 2873
00> 6139
01> 2931
00> 6169
01> 2997
00> 6173
01> 3024
00> 6153
01> 2980
00> 6144
01> 2960
00> 6162
01> 2998
00> 6185
01> 3053
00> 6195
01> 3076
00> 6168
01> 3010
00> 6150
01> 2965
00> 6168
01> 3001
00> 6191
01> 3040
00> 6194
01> 3044
00> 6163
01> 2973
00> 6139
01> 2931
00> 6160
01> 2978
00> 6190
01> 3028
00> 6188
01> 3034
00> 6153
01> 2965
00> 6132
01> 2910
00> 6151
01> 2944
00> 6174
01> 2994
00> 6174
01> 3003
00> 6149
01> 2941
00> 6134
01> 2898
00> 6153
01> 2940
00> 6174
01> 2988
00> 6174
01> 2994
00> 6148
01> 2927
00> 6129
01> 2886
00> 6146
01> 2926
00> 6168
01> 2968
00> 6172
01> 2978
00> 6141
01> 2920
00> 6123
01> 2891
00> 6148
01> 2934
00> 6166
01> 2977
00> 6175
01> 2985
00> 6143
01> 2918
00> 6128
01> 2873
00> 6153
01> 2919
00> 6171
01> 2978
00> 6174
01> 2991
00> 6147
01> 2925
00> 6133
01> 2886
00> 6156
01> 2924
00> 6176
01> 2974
00> 6176
01> 2983
00> 6144
01> 2919
00> 6133
01> 2872
00> 6153
01> 2911
00> 6178
01> 2971
00> 6184
01> 2990
00> 6160
01> 2928
00> 6139
01> 2887
00> 6154
01> 2921
00> 6174
01> 2968
00> 6179
01> 2984
00> 6153
01> 2926
00> 6127
01> 2874
00> 6143
01> 2909
00> 6167
01> 2969
00> 6174
01> 2985
00> 6150
01> 2921
00> 6130
01> 2874
00> 6149
01> 2911
00> 6171
01> 2961
00> 6181
01> 2984
00> 6156
01> 2933
00> 6129
01> 2881
00> 6141
01> 2912
00> 6160
01> 2959
00> 6167
01> 2978
00> 6151
01> 2928
00> 6130
01> 2877
00> 6144
01> 2909
00> 6176
01> 2968
00> 6189
01> 2985
00> 6153
01> 2924
00> 6131
01> 2874
00> 6146
01> 2909
00> 6170
01> 2958
00> 6178
01> 2974
00> 6151
01> 2923
00> 6129
01> 2873
00> 6149
01> 2913
00> 6167
01> 2961
00> 6169
01> 2976
00> 6151
01> 2919
00> 6134
01> 2864
00> 6154
01> 2899
00> 6173
01> 2935
00> 6167
01> 2940
00> 6132
01> 2865
00> 6106
01> 2808
00> 6116
01> 2829
00> 6134
01> 2869
00> 6146
01> 2879
00> 6121
01> 2808
00> 6093
01> 2748
00> 6106
01> 2779
00> 6130
01> 2826
00> 6142
01> 2837
00> 6116
01> 2763
00> 6088
01> 2695
00> 6097
01> 2718
00> 6118
01> 2755
00> 6131
01> 2776
00> 6112
01> 2729
00> 6092
01> 2681
00> 6103
01> 2709
00> 6129
01> 2760
00> 6142
01> 2784
00> 6113
01> 2730
00> 6093
01> 2676
00> 6112
01> 2714
00> 6139
01> 2771
00> 6153
01> 2789
00> 6129
01> 2740
00> 6105
01> 2692
00> 6118
01> 2719
00> 6139
01> 2766
00> 6157
01> 2799
00> 6143
01> 2748
00> 6121
01> 2689
00> 6136
01> 2727
00> 6156
01> 2775
00> 6168
01> 2799
00> 6149
01> 2749
00> 6125
01> 2696
00> 6143
01> 2728
00> 6163
01> 2778
00> 6178
01> 2798
00> 6157
01> 2756
00> 6130
01> 2706
00> 6146
01> 2739
00> 6173
01> 2804
00> 6182
01> 2829
00> 6151
01> 2767
00> 6127
01> 2712
00> 6140
01> 2739
00> 6166
01> 2792
00> 6181
01> 2823
00> 6159
01> 2777
00> 6139
01> 2716
00> 6154
01> 2749
00> 6177
01> 2803
00> 6190
01> 2826
00> 6171
01> 2777
00> 6136
01> 2709
00> 6140
01> 2731
00> 6164
01> 2791
00> 6183
01> 2820
00> 6161
01> 2773
00> 6141
01> 2714
00> 6154
01> 2746
00> 6179
01> 2806
00> 6195
01> 2838
00> 6176
01> 2794
00> 6145
01> 2727
00> 6151
01> 2748
00> 6177
01> 2801
00> 6188
01> 2831
00> 6164
01> 2785
00> 6140
01> 2721
00> 6153
01> 2753
00> 6184
01> 2811
00> 6195
01> 2834
00> 6174
01> 2788
00> 6158
01> 2738
00> 6171
01> 2772
00> 6189
01> 2824
00> 6199
01> 2844
00> 6173
01> 2792
00> 6146
01> 2734
00> 6163
01> 2764
00> 6183
01> 2814
00> 6198
01> 2846
00> 6176
01> 2802
00> 6153
01> 2742
00> 6165
01> 2766
00> 6184
01> 2817
00> 6201
01> 2851
00> 6181
01> 2807
00> 6151
01> 2740
00> 6159
01> 2758
00> 6188
01> 2817
00> 6203
01> 2845
00> 6184
01> 2805
00> 6158
01> 2737
00> 6162
01> 2758
00> 6191
01> 2824
00> 6207
01> 2858
00> 6188
01> 2812
00> 6163
01> 2753
00> 6176
01> 2778
00> 6198
01> 2833
00> 6211
01> 2858
00> 6191
01> 2808
00> 6162
01> 2743
00> 6170
01> 2766
00> 6201
01> 2831
00> 6229
01> 2870
00> 6224
01> 2828
00> 6178
01> 2775
00> 6173
01> 2817
00> 6207
01> 2894
00> 6229
01> 2948
00> 6218
01> 2926
00> 6191
01> 2877
00> 6211
01> 2921
00> 6236
01> 2991
00> 6258
01> 3042
00> 6240
01> 3009
00> 6210
01> 2951
00> 6222
01> 2979
00> 6254
01> 3043
00> 6276
01> 3078
00> 6266
01> 3031
00> 6237
01> 2954
00> 6236
01> 2964
00> 6252
01> 3011
00> 6259
01> 3027
00> 6240
01> 2991
00> 6217
01> 2929
00> 6225
01> 2947
00> 6244
01> 2997
00> 6255
01> 3020
00> 6236
01> 2969
00> 6208
01> 2902
00> 6221
01> 2924
00> 6246
01> 2979
00> 6267
01> 3013
00> 6242
01> 2960
00> 6206
01> 2888
00> 6216
01> 2908
00> 6238
01> 2966
00> 6249
01> 2993
00> 6233
01> 2951
00> 6203
01> 2878
00> 6206
01> 2899
00> 6232
01> 2954
00> 6253
01> 2988
00> 6236
01> 2956
00> 6213
01> 2892
00> 6216
01> 2908
00> 6237
01> 2958
00> 6253
01> 2989
00> 6236
01> 2938
00> 6204
01> 2868
00> 6209
01> 2886
00> 6243
01> 2948
00> 6256
01> 2990
00> 6236
01> 2949
00> 6203
01> 2874
00> 6214
01> 2888
00> 6237
01> 2940
00> 6251
01> 2983
00> 6233
01> 2949
00> 6199
01> 2866
00> 6206
01> 2884
00> 6231
01> 2942
00> 6246
01> 2968
00> 6229
01> 2934
00> 6203
01> 2869
00> 6218
01> 2889
00> 6238
01> 2937
00> 6245
01> 2968
00> 6230
01> 2933
00> 6206
01> 2867
00> 6213
01> 2885
00> 6234
01> 2936
00> 6251
01> 2965
00> 6233
01> 2920
00> 6204
01> 2853
00> 6211
01> 2871
00> 6234
01> 2926
00> 6248
01> 2959
00> 6229
01> 2926
00> 6204
01> 2864
00> 6213
01> 2872
00> 6228
01> 2919
00> 6239
01> 2952
00> 6227
01> 2919
00> 6199
01> 2856
00> 6200
01> 2861
00> 6217
01> 2908
00> 6229
01> 2939
00> 6221
01> 2908
00> 6196
01> 2846
00> 6201
01> 2867
00> 6228
01> 2926
00> 6250
01> 2966
00> 6228
01> 2924
00> 6194
01> 2846
00> 6198
01> 2853
00> 6228
01> 2911
00> 6244
01> 2950
00> 6233
01> 2929
00> 6204
01> 2868
00> 6211
01> 2871
00> 6231
01> 2916
00> 6244
01> 2947
00> 6223
01> 2922
00> 6202
01> 2858
00> 6207
01> 2875
00> 6225
01> 2922
00> 6236
01> 2944
00> 6219
01> 2917
00> 6199
01> 2865
00> 6203
01> 2888
00> 6228
01> 2940
00> 6256
01> 2968
00> 6233
01> 2945
00> 6199
01> 2885
00> 6210
01> 2908
00> 6251
01> 2983
00> 6281
01> 3039
00> 6277
01> 3034
00> 6258
01> 2986
00> 6263
01> 2999
00> 6277
01> 3052
00> 6289
01> 3086
00> 6286
01> 3059
00> 6270
01> 2998
00> 6279
01> 3009
00> 6301
01> 3053
00> 6311
01> 3078
00> 6296
01> 3043
00> 6268
01> 2973
00> 6264
01> 2979
00> 6279
01> 3023
00> 6296
01> 3057
00> 6286
01> 3030
00> 6254
01> 2969
00> 6253
01> 2965
00> 6276
01> 3013
00> 6292
01> 3043
00> 6279
01> 3017
00> 6253
01> 2954
00> 6259
01> 2960
00> 6281
01> 3002
00> 6299
01> 3038
00> 6282
01> 3010
00> 6251
01> 2937
00> 6249
01> 2938
00> 6273
01> 2993
00> 6287
01> 3024
00> 6279
01> 2997
00> 6256
01> 2930
00> 6259
01> 2933
00> 6279
01> 2989
00> 6286
01> 3016
00> 6278
01> 2993
00> 6254
01> 2937
00> 6251
01> 2946
00> 6268
01> 2991
00> 6279
01> 3024
00> 6271
01> 3000
00> 6251
01> 2943
00> 6259
01> 2944
00> 6274
01> 2985
00> 6286
01> 3026
00> 6281
01> 3004
00> 6249
01> 2933
00> 6247
01> 2933
00> 6268
01> 2987
00> 6284
01> 3024
00> 6270
01> 2994
00> 6243
01> 2931
00> 6246
01> 2932
00> 6267
01> 2976
00> 6278
01> 3009
00> 6266
01> 2989
00> 6243
01> 2924
00> 6245
01> 2930
00> 6269
01> 2979
00> 6288
01> 3019
00> 6281
01> 2998
00> 6244
01> 2922
00> 6249
01> 2926
00> 6271
01> 2976
00> 6276
01> 3004
00> 6266
01> 2976
00> 6239
01> 2908
00> 6238
01> 2908
00> 6260
01> 2954
00> 6276
01> 2991
00> 6273
01> 2975
00> 6237
01> 2901
00> 6231
01> 2903
00> 6261
01> 2969
00> 6288
01> 3006
00> 6274
01> 2988
00> 6238
01> 2914
00> 6239
01> 2910
00> 6256
01> 2964
00> 6271
01> 2997
00> 6266
01> 2976
00> 6233
01> 2903
00> 6227
01> 2897
00> 6255
01> 2964
00> 6289
01> 3016
00> 6278
01> 2999
00> 6228
01> 2922
00> 6234
01> 2919
00> 6268
01> 2978
00> 6283
01> 3014
00> 6268
01> 2999
00> 6245
01> 2938
00> 6248
01> 2939
00> 6274
01> 2996
00> 6294
01> 3039
00> 6281
01> 3020
00> 6254
01> 2951
00> 6250
01> 2939
00> 6272
01> 2993
00> 6299
01> 3044
00> 6288
01> 3017
00> 6253
01> 2941
00> 6252
01> 2933
00> 6280
01> 2989
00> 6297
01> 3019
00> 6289
01> 2997
00> 6254
01> 2934
00> 6251
01> 2943
00> 6281
01> 3003
00> 6296
01> 3038
00> 6289
01> 3022
00> 6270
01> 2959
00> 6271
01> 2958
00> 6286
01> 3003
00> 6303
01> 3043
00> 6295
01> 3019
00> 6264
01> 2948
00> 6264
01> 2943
00> 6285
01> 2993
00> 6308
01> 3029
00> 6303
01> 3022
00> 6275
01> 2962
00> 6274
01> 2952
00> 6296
01> 3000
00> 6308
01> 3036
00> 6303
01> 3022
00> 6273
01> 2953
00> 6270
01> 2949
00> 6284
01> 2993
00> 6303
01> 3029
00> 6300
01> 3014
00> 6270
