# SEGGER J-Link RTT Viewer V6.62 Terminal Log File
# Compiled: 16:34:01 on Jan 24 2020
# Logging started @ 07 Jun 2024 22:24:32

00> 16369
01> 6400
00> 16323
01> 6219
00> 16322
01> 6206
00> 16373
01> 6381
00> 16422
01> 6524
00> 16409
01> 6449
00> 16365
01> 6296
00> 16371
01> 6297
00> 16439
01> 6504
00> 16484
01> 6668
00> 16449
01> 6557
00> 16403
01> 6397
00> 16436
01> 6445
00> 16490
01> 6660
00> 16514
01> 6818
00> 16484
01> 6759
00> 16447
01> 6614
00> 16453
01> 6640
00> 16519
01> 6854
00> 16576
01> 7037
00> 16552
01> 6978
00> 16504
01> 6811
00> 16483
01> 6778
00> 16503
01> 6930
00> 16515
01> 7047
00> 16495
01> 6968
00> 16479
01> 6825
00> 16482
01> 6798
00> 16509
01> 6938
00> 16524
01> 7050
00> 16506
01> 6964
00> 16443
01> 6768
00> 16417
01> 6723
00> 16457
01> 6868
00> 16485
01> 6979
00> 16457
01> 6884
00> 16397
01> 6693
00> 16377
01> 6634
00> 16428
01> 6774
00> 16464
01> 6890
00> 16454
01> 6821
00> 16388
01> 6621
00> 16353
01> 6549
00> 16373
01> 6667
00> 16396
01> 6773
00> 16366
01> 6688
00> 16341
01> 6543
00> 16334
01> 6489
00> 16359
01> 6610
00> 16376
01> 6724
00> 16357
01> 6649
00> 16299
01> 6465
00> 16278
01> 6414
00> 16321
01> 6541
00> 16368
01> 6674
00> 16356
01> 6610
00> 16315
01> 6451
00> 16297
01> 6391
00> 16329
01> 6522
00> 16364
01> 6648
00> 16329
01> 6562
00> 16286
01> 6390
00> 16284
01> 6354
00> 16323
01> 6501
00> 16349
01> 6627
00> 16331
01> 6557
00> 16292
01> 6373
00> 16279
01> 6313
00> 16309
01> 6444
00> 16338
01> 6571
00> 16318
01> 6498
00> 16263
01> 6308
00> 16246
01> 6254
00> 16285
01> 6400
00> 16321
01> 6544
00> 16297
01> 6468
00> 16241
01> 6273
00> 16219
01> 6208
00> 16273
01> 6364
00> 16314
01> 6504
00> 16298
01> 6439
00> 16238
01> 6249
00> 16179
01> 6168
00> 16234
01> 6340
00> 16286
01> 6499
00> 16271
01> 6444
00> 16237
01> 6272
00> 16214
01> 6207
00> 16243
01> 6336
00> 162600> 16266
01> 6462
00> 16256
01> 6413
00> 16229
01> 6251
00> 16218
01> 6203
00> 16237
01> 6329
00> 16269
01> 6472
00> 16259
01> 6428
00> 16221
01> 6249
00> 16226
01> 6201
00> 16269
01> 6349
00> 16301
01> 6486
00> 16279
01> 6432
00> 16233
01> 6270
00> 16205
01> 6195
00> 16244
01> 6330
00> 16294
01> 6488
00> 16293
01> 6447
00> 16249
01> 6271
00> 16207
01> 6190
00> 16240
01> 6328
00> 16291
01> 6487
00> 16288
01> 6457
00> 16256
01> 6300
00> 16223
01> 6213
00> 16253
01> 6338
00> 16293
01> 6489
00> 16277
01> 6445
00> 16220
01> 6263
00> 16208
01> 6203
00> 16249
01> 6350
00> 16294
01> 6507
00> 16284
01> 6461
00> 16234
01> 6282
00> 16210
01> 6209
00> 16254
01> 6349
00> 16301
01> 6501
00> 16276
01> 6442
00> 16232
01> 6283
00> 16222
01> 6229
00> 16244
01> 6343
00> 16259
01> 6456
00> 16231
01> 6383
00> 16170
01> 6169
00> 16171
01> 6098
00> 16212
01> 6239
00> 16224
01> 6369
00> 16183
01> 6297
00> 16154
01> 6126
00> 16161
01> 6068
00> 16196
01> 6204
00> 16233
01> 6359
00> 16228
01> 6327
00> 16183
01> 6148
00> 16148
01> 6056
00> 16193
01> 6197
00> 16238
01> 6349
00> 16227
01> 6307
00> 16179
01> 6121
00> 16158
01> 6051
00> 16188
01> 6183
00> 16223
01> 6331
00> 16226
01> 6306
00> 16181
01> 6139
00> 16158
01> 6054
00> 16181
01> 6169
00> 16228
01> 6332
00> 16238
01> 6317
00> 16183
01> 6126
00> 16143
01> 6028
00> 16189
01> 6172
00> 16246
01> 6343
00> 16232
01> 6306
00> 16186
01> 6130
00> 16173
01> 6049
00> 16204
01> 6173
00> 16236
01> 6327
00> 16228
01> 6299
00> 16185
01> 6128
00> 16163
01> 6056
00> 16199
01> 6188
00> 16238
01> 6340
00> 16226
01> 6306
00> 16183
01> 6137
00> 16151
01> 6035
00> 16180
01> 6160
00> 16225
01> 6335
00> 16231
01> 6326
00> 16183
01> 6152
00> 16159
01> 6054
00> 16182
01> 6167
00> 16229
01> 6335
00> 16231
01> 6323
00> 16172
01> 6129
00> 16134
01> 6034
00> 16161
01> 6163
00> 16212
01> 6337
00> 16203
01> 6313
00> 16162
01> 6141
00> 16143
01> 6061
00> 16177
01> 6188
00> 16221
01> 6345
00> 16204
01> 6309
00> 16169
01> 6139
00> 16148
01> 6050
00> 16182
01> 6181
00> 16239
01> 6359
00> 16228
01> 6338
00> 16188
01> 6168
00> 16173
01> 6084
00> 16193
01> 6201
00> 16238
01> 6378
00> 16229
01> 6364
00> 16186
01> 6184
00> 16169
01> 6096
00> 16203
01> 6212
00> 16248
01> 6371
00> 16257
01> 6371
00> 16207
01> 6210
00> 16175
01> 6108
00> 16206
01> 6228
00> 16243
01> 6383
00> 16239
01> 6367
00> 16203
01> 6202
00> 16184
01> 6109
00> 16214
01> 6209
00> 16256
01> 6368
00> 16250
01> 6370
00> 16196
01> 6206
00> 16174
01> 6107
00> 16198
01> 6203
00> 16245
01> 6380
00> 16256
01> 6387
00> 16218
01> 6219
00> 16184
01> 6110
00> 16219
01> 6221
00> 16259
01> 6385
00> 16257
01> 6382
00> 16228
01> 6227
00> 16201
01> 6118
00> 16238
01> 6236
00> 16271
01> 6398
00> 16271
01> 6393
00> 16231
01> 6214
00> 16192
01> 6098
00> 16233
01> 6206
00> 16291
01> 6386
00> 16299
01> 6393
00> 16248
01> 6223
00> 16202
01> 6096
00> 16219
01> 6193
00> 16257
01> 6361
00> 16279
00> 15893
01> 8719
00> 15893
01> 8756
00> 15878
01> 8653
00> 15858
01> 8604
00> 15856
01> 8651
00> 15861
01> 8757
00> 15899
01> 8740
00> 15854
01> 8650
00> 15861
01> 8591
00> 15873
01> 8635
00> 15886
01> 8704
00> 15874
01> 8776
00> 15858
01> 8676
00> 15829
01> 8598
00> 15851
01> 8633
00> 15870
01> 8702
00> 15857
01> 8686
00> 15867
01> 8611
00> 15814
01> 8550
00> 15828
01> 8597
00> 15838
01> 8652
00> 15849
01> 8699
00> 15841
01> 8634
00> 15799
01> 8594
00> 15799
01> 8649
00> 15828
01> 8636
00> 15833
01> 8684
00> 15781
01> 8675
00> 15711
01> 8603
00> 15813
01> 8611
00> 15882
01> 8627
00> 15805
01> 8668
00> 15741
01> 8606
00> 15774
01> 8578
00> 15789
01> 8691
00> 15838
01> 8691
00> 15861
01> 8663
00> 15811
01> 8610
00> 15713
01> 8584
00> 15771
01> 8579
00> 15872
01> 8639
00> 15833
01> 8631
00> 15856
01> 8668
00> 15801
01> 8630
00> 15828
01> 8606
00> 15853
01> 8655
00> 15811
01> 8656
00> 15813
01> 8602
00> 15842
01> 8544
00> 15818
01> 8594
00> 15864
01> 8677
00> 15874
01> 8661
00> 15841
01> 8628
00> 15794
01> 8594
00> 15849
01> 8590
00> 15878
01> 8661
00> 15878
01> 8689
00> 15859
01> 8618
00> 15846
01> 8561
00> 15851
01> 8586
00> 15845
01> 8644
00> 15869
01> 8676
00> 15876
01> 8644
00> 15856
01> 8580
00> 15853
01> 8588
00> 15868
01> 8646
00> 15878
01> 8683
00> 15860
01> 8649
00> 15843
01> 8591
00> 15849
01> 8609
00> 15857
01> 8652
00> 15849
01> 8671
00> 15829
01> 8619
00> 15804
01> 8559
00> 15807
01> 8584
00> 15824
01> 8650
00> 15838
01> 8687
00> 15823
01> 8648
00> 15806
01> 8589
00> 15821
01> 8611
00> 15833
01> 8663
00> 15841
01> 8696
00> 15827
01> 8654
00> 15809
01> 8584
00> 15816
01> 8604
00> 15828
01> 8654
00> 15838
01> 8685
00> 15822
01> 8648
00> 15796
01> 8583
00> 15802
01> 8601
00> 15819
01> 8658
00> 15835
01> 8687
00> 15821
01> 8646
00> 15799
01> 8582
00> 15804
01> 8599
00> 15822
01> 8666
00> 15832
01> 8713
00> 15827
01> 8673
00> 15811
01> 8597
00> 15810
01> 8603
00> 15819
01> 8651
00> 15841
01> 8691
00> 15836
01> 8661
00> 15824
01> 8594
00> 15831
01> 8611
00> 15853
01> 8673
00> 15866
01> 8720
00> 15853
01> 8693
00> 15833
01> 8618
00> 15832
01> 8614
00> 15844
01> 8655
00> 15850
01> 8692
00> 15832
01> 8654
00> 15828
01> 8593
00> 15832
01> 8619
00> 15845
01> 8656
00> 15859
01> 8699
00> 15849
01> 8666
00> 15832
01> 8609
00> 15839
01> 8608
00> 15836
01> 8653
00> 15856
01> 8727
00> 15821
01> 8725
00> 15836
01> 8579
00> 15846
01> 8598
00> 15843
01> 8636
00> 15864
01> 8668
00> 15839
01> 8662
00> 15836
01> 8593
00> 15838
01> 8599
00> 15853
01> 8665
00> 15855
01> 8716
00> 15837
01> 8674
00> 15828
01> 8627
00> 15846
01> 8688
00> 15831
01> 8718
00> 15850
01> 8699
00> 15807
01> 8633
00> 15836
01> 8602
00> 15834
01> 8628
00> 15858
01> 8706
00> 15859
01> 8740
00> 15836
01> 8680
00> 15811
01> 8590
00> 15786
01> 8604
00> 15748
01> 8636
00> 15781
01> 8700
00> 15831
01> 8718
00> 15826
01> 8635
00> 15826
01> 8604
00> 15804
01> 8690
00> 15824
01> 8741
00> 15858
01> 8735
00> 15828
01> 8629
00> 15811
01> 8596
00> 15792
01> 8670
00> 15801
01> 8717
00> 15786
01> 8683
00> 15733
01> 8619
00> 15789
01> 8589
00> 15823
01> 8654
00> 15857
01> 8714
00> 15853
01> 8710
00> 15794
01> 8640
00> 15773
01> 8643
00> 15837
01> 8656
00> 15834
01> 8701
00> 15819
01> 8671
00> 15818
01> 8631
00> 15816
01> 8633
00> 15821
01> 8666
00> 15817
01> 8699
00> 15838
01> 8701
00> 15814
01> 8631
00> 15814
01> 8618
00> 15832
01> 8682
00> 15836
01> 8723
00> 15832
01> 8696
00> 15816
01> 8625
00> 15824
01> 8641
00> 15847
01> 8702
00> 15858
01> 8742
00> 15850
01> 8726
00> 15829
01> 8669
00> 15832
01> 8652
00> 15839
01> 8694
00> 15849
01> 8729
00> 15836
01> 8703
00> 15819
01> 8622
00> 15825
01> 8619
00> 15835
01> 8676
00> 15853
01> 8731
00> 15854
01> 8711
00> 15834
01> 8650
00> 15836
01> 8657
00> 15850
01> 8705
00> 15858
01> 8747
00> 15850
01> 8732
00> 15833
01> 8672
00> 15841
01> 8689
00> 15861
01> 8734
00> 15858
01> 8727
00> 15838
01> 8681
00> 15811
01> 8594
00> 15808
01> 8593
00> 15827
01> 8655
00> 15846
01> 8712
00> 15843
01> 8704
00> 15809
01> 8634
00> 15821
01> 8634
00> 15847
01> 8681
00> 15864
01> 8739
00> 15863
01> 8729
00> 15840
01> 8654
00> 15829
01> 8649
00> 15848
01> 8692
00> 15873
01> 8740
00> 15863
01> 8714
00> 15836
01> 8633
00> 15838
01> 8629
00> 15849
01> 8685
00> 15862
01> 8740
00> 15862
01> 8726
00> 15841
01> 8650
00> 15843
01> 8654
00> 15850
01> 8694
00> 15869
01> 8727
00> 15866
01> 8717
00> 15834
01> 8652
00> 15853
01> 8654
00> 15860
01> 8698
00> 15869
01> 8732
00> 15871
01> 8719
00> 15849
01> 8643
00> 15845
01> 8637
00> 15856
01> 8703
00> 15870
01> 8757
00> 15868
01> 8744
00> 15848
01> 8661
00> 15844
01> 8640
00> 15852
01> 8686
00> 15863
01> 8734
00> 15861
01> 8725
00> 15842
01> 8651
00> 15841
01> 8638
00> 15854
01> 8687
00> 15870
01> 8736
00> 15865
01> 8729
00> 15845
01> 8653
00> 15847
01> 8644
00> 15864
01> 8714
00> 15874
01> 8778
00> 15866
01> 8756
00> 15849
01> 8666
00> 15849
01> 8656
00> 15861
01> 8711
00> 15884
01> 8762
00> 15878
01> 8743
00> 15854
01> 8659

01> 8633
00> 15866
01> 8683
00> 15881
01> 8743
00> 15884
01> 8744
00> 15861
01> 8667
00> 15849
01> 8641
00> 15861
01> 8686
00> 15876
01> 8734
00> 15871
01> 8728
00> 15854
01> 8661
00> 15849
01> 8646
00> 15862
01> 8703
00> 15878
01> 8749
00> 15876
01> 8740
00> 15844
01> 8659
00> 15836
01> 8632
00> 15856
01> 8689
00> 15881
01> 8757
00> 15876
01> 8754
00> 15851
01> 8676
00> 15848
01> 8655
00> 15861
01> 8697
00> 15873
01> 8743
00> 15869
01> 8743
00> 15843
01> 8663
00> 15839
01> 8648
00> 15856
01> 8705
00> 15866
01> 8751
00> 15864
01> 8744
00> 15846
01> 8676
00> 15844
01> 8658
00> 15857
01> 8709
00> 15866
01> 8759
00> 15862
01> 8756
00> 15846
01> 8679
00> 15839
01> 8648
00> 15844
01> 8696
00> 15854
01> 8756
00> 15849
01> 8753
00> 15829
01> 8677
00> 15828
01> 8659
00> 15840
01> 8705
00> 15856
01> 8755
00> 15856
01> 8756
00> 15839
01> 8683
00> 15830
01> 8648
00> 15842
01> 8695
00> 15860
01> 8753
00> 15861
01> 8749
00> 15838
01> 8678
00> 15831
01> 8655
00> 15851
01> 8706
00> 15858
01> 8749
00> 15842
01> 8755
00> 15824
01> 8703
00> 15839
01> 8654
00> 15849
01> 8701
00> 15868
01> 8756
00> 15856
01> 8736
00> 15854
01> 8684
00> 15847
01> 8699
00> 15840
01> 8723
00> 15847
01> 8764
00> 15860
01> 8753
00> 15855
01> 8713
00> 15848
01> 8675
00> 15866
01> 8686
00> 15872
01> 8756
00> 15831
01> 8744
00> 15868
01> 8692
00> 15854
01> 8651
00> 15849
01> 8700
00> 15866
01> 8734
00> 15823
01> 8737
00> 15783
01> 8713
00> 15808
01> 8672
00> 15831
01> 8718
00> 15817
01> 8735
00> 15782
01> 8704
00> 15768
01> 8654
00> 15740
01> 8649
00> 15796
01> 8753
00> 15849
01> 8754
00> 15834
01> 8740
00> 15796
01> 8655
00> 15785
01> 8626
00> 15799
01> 8681
00> 15819
01> 8744
00> 15789
01> 8709
00> 15769
01> 8623
00> 15801
01> 8655
00> 15830
01> 8688
00> 15852
01> 8763
00> 15837
01> 8785
00> 15832
01> 8693
00> 15814
01> 8631
00> 15824
01> 8689
00> 15859
01> 8753
00> 15851
01> 8749
00> 15833
01> 8689
00> 15799
01> 8644
00> 15844
01> 8714
00> 15836
01> 8748
00> 15851
01> 8769
00> 15823
01> 8679
00> 15820
01> 8652
00> 15832
01> 8703
00> 15839
01> 8763
00> 15853
01> 8757
00> 15833
01> 8699
00> 15824
01> 8663
00> 15826
01> 8702
00> 15837
01> 8739
00> 15853
01> 8766
00> 15832
01> 8705
00> 15829
01> 8661
00> 15836
01> 8693
00> 15848
01> 8739
00> 15850
01> 8753
00> 15834
01> 8680
00> 15831
01> 8648
00> 15851
01> 8715
00> 15866
01> 8772
00> 15868
01> 8785
00> 15852
01> 8717
00> 15838
01> 8676
00> 15846
01> 8709
00> 15861
01> 8756
00> 15863
01> 8760
00> 15846
01> 8696
00> 15839
01> 8665
00> 15853
01> 8702
00> 15869
01> 8756
00> 15878
01> 8781
00> 15862
01> 8716
00> 15840
01> 8654
00> 15853
01> 8691
00> 15866
01> 8748
00> 15864
01> 8761
00> 15851
01> 8701
00> 15844
01> 8674
00> 15858
01> 8716
00> 15862
01> 8763
00> 15867
01> 8785
00> 15848
01> 8717
00> 15838
01> 8676
00> 15849
01> 8714
00> 15859
01> 8757
00> 15863
01> 8772
00> 15845
01> 8719
00> 15843
01> 8686
00> 15848
01> 8710
00> 15856
01> 8748
00> 15862
01> 8761
00> 15848
01> 8694
00> 15836
01> 8651
00> 15844
01> 8687
00> 15863
01> 8747
00> 15873
01> 8773
00> 15855
01> 8718
00> 15834
01> 8673
00> 15843
01> 8705
00> 15863
01> 8758
00> 15866
01> 8778
00> 15849
01> 8726
00> 15836
01> 8688
00> 15844
01> 8713
00> 15856
01> 8758
00> 15856
01> 8773
00> 15844
01> 8728
00> 15838
01> 8701
00> 15858
01> 8734
00> 15866
01> 8775
00> 15865
01> 8796
00> 15848
01> 8744
00> 15842
01> 8707
00> 15852
01> 8736
00> 15868
01> 8788
00> 15871
01> 8803
00> 15844
01> 8736
00> 15836
01> 8684
00> 15839
01> 8709
00> 15855
01> 8771
00> 15866
01> 8811
00> 15856
01> 8755
00> 15840
01> 8706
00> 15845
01> 8732
00> 15856
01> 8774
00> 15861
01> 8791
00> 15839
01> 8733
00> 15824
01> 8688
00> 15838
01> 8725
00> 15851
01> 8779
00> 15858
01> 8799
00> 15837
01> 8730
00> 15826
01> 8680
00> 15837
01> 8717
00> 15846
01> 8773
00> 15851
01> 8771
00> 15828
01> 8695
00> 15819
01> 8655
00> 15832
01> 8703
00> 15849
01> 8762
00> 15858
01> 8783
00> 15839
01> 8710
00> 15824
01> 8666
00> 15833
01> 8716
00> 15857
01> 8764
00> 15870
01> 8789
00> 15847
01> 8735
00> 15824
01> 8699
00> 15831
01> 8715
00> 15869
01> 8768
00> 15871
01> 8781
00> 15842
01> 8740
00> 15833
01> 8703
00> 15843
01> 8724
00> 15849
01> 8776
00> 15871
01> 8808
00> 15858
01> 8721
00> 15839
01> 8686
00> 15854
01> 8709
00> 15843
01> 8735
00> 15857
01> 8772
00> 15854
01> 8715
00> 15824
01> 8646
00> 15816
01> 8677
00> 15845
01> 8754
00> 15859
01> 8796
00> 15816
01> 8746
00> 15826
01> 8684
00> 15858
01> 8690
00> 15844
01> 8756
00> 15853
01> 8782
00> 15846
01> 8751
00> 15826
01> 8711
00> 15846
01> 8743
00> 15869
01> 8794
00> 15855
01> 8803
00> 15824
01> 8734
00> 15803
01> 8677
00> 15789
01> 8691
00> 15848
01> 8760
00> 15870
01> 8816
00> 15840
01> 8759
00> 15841
01> 8718
00> 15844
01> 8746
00> 15851
01> 8789
00> 15853
01> 8788
00> 15851
01> 8741
00> 15826
01> 8694
00> 15825
01> 8724
00> 15845
01> 8789
00> 15836
01> 8819
00> 15832
01> 8721
00> 15830
01> 8673
00> 15835
01> 8728
00> 15821
01> 8800
00> 15846
01> 8797
00> 15843
01> 8749
00> 15821
01> 8706
00> 15847
01> 8708
00> 15844
01> 8789
00> 15869
01> 8823
00> 15838
01> 8751
00> 15769
01> 8643
00> 15789
01> 8670
00> 15841
01> 8803
00> 15859
01> 8840
00> 15846
01> 8748
00> 15799
01> 8663
00> 15850
01> 8728
00> 15873
01> 8813
00> 15884
01> 8874
00> 15828
01> 8777
00> 15816
01> 8686
00> 15814
01> 8752
00> 15851
01> 8797
00> 15839
01> 8840
00> 15813
01> 8797
00> 15829
01> 8696
00> 15846
01> 8733
00> 15846
01> 8770
00> 15858
01> 8833
00> 15843
01> 8795
00> 15833
01> 8703
00> 15827
01> 8696
00> 15833
01> 8781
00> 15821
01> 8832
00> 15818
01> 8762
00> 15811
01> 8688
00> 15833
01> 8716
00> 15846
01> 8777
00> 15851
01> 8787
00> 15832
01> 8740
00> 15822
01> 8700
00> 15818
01> 8723
00> 15816
01> 8780
00> 15855
01> 8800
00> 15854
01> 8775
00> 15814
01> 8698
00> 15788
01> 8714
00> 15862
01> 8781
00> 15866
01> 8841
00> 15838
01> 8774
00> 15824
01> 8691
00> 15845
01> 8714
00> 15851
01> 8793
00> 15863
01> 8836
00> 15849
01> 8787
00> 15826
01> 8721
00> 15817
01> 8760
00> 15851
01> 8775
00> 15880
01> 8824
00> 15826
01> 8771
00> 15819
01> 8696
00> 15839
01> 8712
00> 15809
01> 8775
00> 15839
01> 8838
00> 15877
01> 8811
00> 15851
01> 8726
00> 15844
01> 8713
00> 15856
01> 8831
00> 15863
01> 8866
00> 15835
01> 8778
00> 15803
01> 8679
00> 15819
01> 8715
00> 15848
01> 8769
00> 15873
01> 8840
00> 15839
01> 8791
00> 15824
01> 8711
00> 15830
01> 8726
00> 15874
01> 8800
00> 15879
01> 8856
00> 15851
01> 8797
00> 15809
01> 8714
00> 15818
01> 8719
00> 15861
01> 8807
00> 15878
01> 8860
00> 15837
01> 8779
00> 15836
01> 8691
00> 15859
01> 8761
00> 15851
01> 8799
00> 15843
01> 8829
00> 15834
01> 8764
00> 15821
01> 8713
00> 15814
01> 8703
00> 15838
01> 8802
00> 15884
01> 8904
00> 15863
01> 8817
00> 15861
01> 8733
00> 15846
01> 8751
00> 15829
01> 8806
00> 15876
01> 8829
00> 15884
01> 8825
00> 15859
01> 8750
00> 15838
01> 8750
00> 15864
01> 8809
00> 15883
01> 8846
00> 15868
01> 8797
00> 15843
01> 8735
00> 15844
01> 8739
00> 15864
01> 8790
00> 15889
01> 8859
00> 15865
01> 8806
00> 15824
01> 8738
00> 15811
01> 8731
00> 15870
01> 8813
00> 15881
01> 8878
00> 15871
01> 8820
00> 15852
01> 8738
00> 15850
01> 8720
00> 15867
01> 8803
00> 15883
01> 8873
00> 15865
01> 8828
00> 15839
01> 8734
00> 15850
01> 8741
00> 15872
01> 8813
00> 15874
01> 8873
00> 15876
01> 8825
00> 15854
01> 8738
00> 15853
01> 8751
00> 15878
01> 8835
00> 15890
01> 8891
00> 15871
01> 8835
00> 15845
01> 8724
00> 15850
01> 8740
00> 15871
01> 8826
00> 15888
01> 8894
00> 15868
01> 8844
00> 15840
01> 8734
00> 15846
01> 8743
00> 15866
01> 8819
00> 15881
01> 8881
00> 15864
01> 8836
00> 15841
01> 8740
00> 15847
01> 8747
00> 15865
01> 8818
00> 15884
01> 8874
00> 15870
01> 8828
00> 15837
01> 8722
00> 15841
01> 8738
00> 15859
01> 8813
00> 15880
01> 8887
00> 15866
01> 8844
00> 15839
01> 8738
00> 15840
01> 8752
00> 15868
01> 8825
00> 15879
01> 8886
00> 15863
01> 8839
00> 15841
01> 8743
00> 15841
01> 8731
00> 15855
01> 8804
00> 15872
01> 8865
00> 15855
01> 8828
00> 15829
01> 8738
00> 15832
01> 8746
00> 15854
01> 8819
00> 15869
01> 8882
00> 15847
01> 8836
00> 15827
01> 8747
00> 15836
01> 8754
00> 15853
01> 8820
00> 15858
01> 8881
00> 15847
01> 8839
00> 15824
01> 8744
00> 15834
01> 8754
00> 15859
01> 8816
00> 15871
01> 8869
00> 15853
01> 8829
00> 15824
01> 8729
00> 15828
01> 8745
00> 15849
01> 8831
00> 15868
01> 8883
00> 15849
01> 8826
00> 15821
01> 8720
00> 15819
01> 8746
00> 15850
01> 8820
00> 15866
01> 8883
00> 15862
01> 8859
00> 15839
01> 8751
00> 15830
01> 8754
00> 15855
01> 8829
00> 15878
01> 8878
00> 15864
01> 8842
00> 15839
01> 8741
00> 15848
01> 8756
00> 15878
01> 8826
00> 15882
01> 8903
00> 15865
01> 8849
00> 15829
01> 8734
00> 15843
01> 8744
00> 15872
01> 8831
00> 15893
01> 8903
00> 15875
01> 8861
00> 15840
01> 8743
00> 15844
01> 8755
00> 15871
01> 8832
00> 15888
01> 8891
00> 15871
01> 8861
00> 15843
01> 8761
00> 15841
01> 8764
00> 15868
01> 8844
00> 15885
01> 8912
00> 15874
01> 8877
00> 15841
01> 8764
00> 15839
01> 8755
00> 15852
01> 8829
00> 15878
01> 8899
00> 15874
01> 8869
00> 15848
01> 8755
00> 15848
01> 8757
00> 15868
01> 8839
00> 15889
01> 8911
00> 15876
01> 8881
00> 15849
01> 8783
00> 15852
01> 8780
00> 15871
01> 8856
00> 15892
01> 8928
00> 15879
01> 8889
00> 15836
01> 8761
00> 15826
01> 8762
00> 15856
01> 8843
00> 15887
01> 8916
00> 15868
01> 8876
00> 15838
01> 8749
00> 15838
01> 8747
00> 15859
01> 8843
00> 15879
01> 8919
00> 15872
01> 8887
00> 15829
01> 8762
00> 15832
01> 8750
00> 15864
01> 8840
00> 15877
01> 8920
00> 15859
01> 8870
00> 15845
01> 8761
00> 15849
01> 8764
00> 15853
01> 8860
00> 15876
01> 8923
00> 15879
01> 8879

01> 8760
00> 15836
01> 8749
00> 15851
01> 8841
00> 15866
01> 8966
00> 15867
01> 8914
00> 15833
01> 8772
00> 15845
01> 8756
00> 15848
01> 8838
00> 15849
01> 8902
00> 15866
01> 8864
00> 15839
01> 8762
00> 15843
01> 8747
00> 15860
01> 8842
00> 15878
01> 8979
00> 15849
01> 8888
00> 15795
01> 8746
00> 15846
01> 8764
00> 15853
01> 8846
00> 15851
01> 8861
00> 15875
01> 8841
00> 15781
01> 8767
00> 15843
01> 8723
00> 15873
01> 8829
00> 15888
01> 8909
00> 15849
01> 8861
00> 15809
01> 8737
00> 15808
01> 8722
00> 15826
01> 8844
00> 15833
01> 8913
00> 15836
01> 8867
00> 15816
01> 8741
00> 15808
01> 8749
00> 15855
01> 8853
00> 15869
01> 8935
00> 15838
01> 8851
00> 15813
01> 8753
00> 15808
01> 8752
00> 15818
01> 8815
00> 15839
01> 8889
00> 15876
01> 8898
00> 15823
01> 8777
00> 15823
01> 8762
00> 15833
01> 8819
00> 15865
01> 8891
00> 15848
01> 8891
00> 15821
01> 8784
00> 15818
01> 8738
00> 15832
01> 8811
00> 15861
01> 8926
00> 15882
01> 8980
00> 15836
01> 8821
00> 15803
01> 8699
00> 15821
01> 8741
00> 15841
01> 8807
00> 15860
01> 8832
00> 15850
01> 8774
00> 15846
01> 8791
00> 15852
01> 8877
00> 15851
01> 8883
00> 15820
01> 8864
00> 15818
01> 8738
00> 15851
01> 8721
00> 15847
01> 8821
00> 15883
01> 8899
00> 15869
01> 8870
00> 15808
01> 8764
00> 15800
01> 8746
00> 15834
01> 8834
00> 15891
01> 8884
00> 15878
01> 8896
00> 15846
01> 8797
00> 15876
01> 8931
00> 15914
01> 9026
00> 15883
01> 8948
00> 15853
01> 8829
00> 15816
01> 8686
00> 15803
01> 8654
00> 15827
01> 8753
00> 15844
01> 8884
00> 15847
01> 8881
00> 15827
01> 8791
00> 15829
01> 8788
00> 15843
01> 8853
00> 15880
01> 8878
00> 15875
01> 8865
00> 15843
01> 8777
00> 15814
01> 8738
00> 15848
01> 8804
00> 15866
01> 8891
00> 15868
01> 8884
00> 15831
01> 8777
00> 15813
01> 8741
00> 15835
01> 8827
00> 15872
01> 8899
00> 15849
01> 8879
00> 15834
01> 8772
00> 15830
01> 8738
00> 15847
01> 8816
00> 15864
01> 8894
00> 15853
01> 8891
00> 15819
01> 8779
00> 15815
01> 8733
00> 15833
01> 8802
00> 15865
01> 8889
00> 15869
01> 8899
00> 15829
01> 8782
00> 15812
01> 8739
00> 15837
01> 8811
00> 15869
01> 8886
00> 15866
01> 8893
00> 15834
01> 8783
00> 15818
01> 8741
00> 15830
01> 8805
00> 15859
01> 8880
00> 15854
01> 8877
00> 15824
01> 8760
00> 15814
01> 8721
00> 15831
01> 8804
00> 15843
01> 8886
00> 15838
01> 8894
00> 15814
01> 8781
00> 15801
01> 8736
00> 15824
01> 8804
00> 15849
01> 8891
00> 15844
01> 8892
00> 15813
01> 8783
00> 15804
01> 8741
00> 15821
01> 8803
00> 15840
01> 8879
00> 15841
01> 8897
00> 15806
01> 8795
00> 15796
01> 8734
00> 15819
01> 8809
00> 15845
01> 8903
00> 15846
01> 8918
00> 15808
01> 8801
00> 15794
01> 8737
00> 15809
01> 8808
00> 15829
01> 8886
00> 15839
01> 8896
00> 15808
01> 8791
00> 15803
01> 8752
00> 15827
01> 8818
00> 15843
01> 8892
00> 15843
01> 8907
00> 15821
01> 8800
00> 15816
01> 8757
00> 15845
01> 8823
00> 15861
01> 8898
00> 15855
01> 8906
00> 15823
01> 8799
00> 15821
01> 8770
00> 15841
01> 8844
00> 15856
01> 8919
00> 15855
01> 8921
00> 15826
01> 8811
00> 15814
01> 8774
00> 15832
01> 8837
00> 15860
01> 8906
00> 15859
01> 8909
00> 15833
01> 8819
00> 15828
01> 8785
00> 15849
01> 8848
00> 15870
01> 8921
00> 15865
01> 8921
00> 15830
01> 8815
00> 15826
01> 8778
00> 15843
01> 8842
00> 15864
01> 8915
00> 15863
01> 8923
00> 15833
01> 8826
00> 15821
01> 8774
00> 15836
01> 8836
00> 15853
01> 8905
00> 15853
01> 8912
00> 15829
01> 8826
00> 15815
01> 8779
00> 15826
01> 8830
00> 15846
01> 8908
00> 15849
01> 8916
00> 15819
01> 8816
00> 15806
01> 8767
00> 15823
01> 8829
00> 15847
01> 8905
00> 15848
01> 8904
00> 15822
01> 8811
00> 15813
01> 8771
00> 15834
01> 8838
00> 15847
01> 8910
00> 15844
01> 8915
00> 15814
01> 8812
00> 15803
01> 8774
00> 15823
01> 8836
00> 15844
01> 8910
00> 15848
01> 8918
00> 15823
01> 8826
00> 15817
01> 8785
00> 15831
01> 8841
00> 15853
01> 8905
00> 15855
01> 8907
00> 15827
01> 8809
00> 15818
01> 8768
00> 15833
01> 8825
00> 15851
01> 8905
00> 15860
01> 8914
00> 15824
01> 8806
00> 15819
01> 8770
00> 15833
01> 8841
00> 15843
01> 8914
00> 15836
01> 8932
00> 15817
01> 8836
00> 15809
01> 8786
00> 15830
01> 8841
00> 15853
01> 8907
00> 15839
01> 8917
00> 15817
01> 8830
00> 15809
01> 8779
00> 15828
01> 8828
00> 15844
01> 8905
00> 15839
01> 8919
00> 15824
01> 8840
00> 15818
01> 8791
00> 15833
01> 8835
00> 15853
01> 8913
00> 15857
01> 8924
00> 15833
01> 8854
00> 15818
01> 8818
00> 15840
01> 8851
00> 15852
01> 8911
00> 15858
01> 8929
00> 15833
01> 8843
00> 15816
01> 8790
00> 15834
01> 8850
00> 15843
01> 8913
00> 15852
01> 8928
00> 15819
01> 8866
00> 15809
01> 8813
00> 15826
01> 8823
00> 15833
01> 8894
00> 15867
01> 8913
00> 15831
01> 8835
00> 15799
01> 8795
00> 15829
01> 8839
00> 15851
01> 8879
00> 15859
01> 8918
00> 15837
01> 8845
00> 15818
01> 8781
00> 15826
01> 8834
00> 15854
01> 8928
00> 15855
01> 8943
00> 15816
01> 8838
00> 15786
01> 8791
00> 15810
01> 8847
00> 15859
01> 8918
00> 15844
01> 8947
00> 15825
01> 8831
00> 15818
01> 8783
00> 15812
01> 8845
00> 15835
01> 8936
00> 15839
01> 8959
00> 15808
01> 8823
00> 15790
01> 8761
00> 15815
01> 8844
00> 15863
01> 8931
00> 15871
01> 8892
00> 15843
01> 8820
00> 15848
01> 8786
00> 15854
01> 8839
00> 15862
01> 8911
00> 15861
01> 8934
00> 15831
01> 8838
00> 15808
01> 8778
00> 15818
01> 8833
00> 15828
01> 8898
00> 15838
01> 8924
00> 15828
01> 8845
00> 15811
01> 8792
00> 15829
01> 8843
00> 15846
01> 8910
00> 15843
01> 8941
00> 15813
01> 8849
00> 15804
01> 8785
00> 15819
01> 8843
00> 15830
01> 8908
00> 15839
01> 8918
00> 15823
01> 8844
00> 15794
01> 8799
00> 15814
01> 8817
00> 15839
01> 8889
00> 15844
01> 8928
00> 15824
01> 8841
00> 15797
01> 8781
00> 15818
01> 8827
00> 15853
01> 8898
00> 15853
01> 8930
00> 15821
01> 8859
00> 15804
01> 8786
00> 15801
01> 8831
00> 15858
01> 8888
00> 15866
01> 8932
00> 15836
01> 8849
00> 15812
01> 8781
00> 15806
01> 8822
00> 15843
01> 8881
00> 15853
01> 8928
00> 15826
01> 8873
00> 15813
01> 8794
00> 15841
01> 8852
00> 15856
01> 8902
00> 15853
01> 8936
00> 15832
01> 8842
00> 15829
01> 8771
00> 15834
01> 8836
00> 15848
01> 8935
00> 15853
01> 8978
00> 15835
01> 8874
00> 15823
01> 8793
00> 15831
01> 8832
00> 15846
01> 8887
00> 15853
01> 8929
00> 15838
01> 8866
00> 15801
01> 8801
00> 15813
01> 8856
00> 15840
01> 8904
00> 15845
01> 8929
00> 15823
01> 8864
00> 15798
01> 8793
00> 15814
01> 8829
00> 15850
01> 8915
00> 15861
01> 8956
00> 15841
01> 8891
00> 15819
01> 8811
00> 15809
01> 8840
00> 15829
01> 8888
00> 15858
01> 8943
00> 15821
01> 8868
00> 15800
01> 8791
00> 15808
01> 8836
00> 15834
01> 8909
00> 15824
01> 8968
00> 15804
01> 8874
00> 15794
01> 8783
00> 15803
01> 8841
00> 15834
01> 8907
00> 15841
01> 8939
00> 15811
01> 8862
00> 15793
01> 8784
00> 15803
01> 8818
00> 15830
01> 8918
00> 15836
01> 8949
00> 15817
01> 8875
00> 15802
01> 8798
00> 15793
01> 8824
00> 15814
01> 8904
00> 15841
01> 8948
00> 15821
01> 8883
00> 15801
01> 8833
00> 15813
01> 8849
00> 15841
01> 8904
00> 15841
01> 8949
00> 15809
01> 8888
00> 15794
01> 8815
00> 15816
01> 8852
00> 15834
01> 8909
00> 15825
01> 8941
00> 15796
01> 8879
00> 15791
01> 8807
00> 15789
01> 8854
00> 15804
01> 8908
00> 15814
01> 8951
00> 15791
01> 8871
00> 15770
01> 8798
00> 15781
01> 8846
00> 15796
01> 8885
00> 15806
01> 8931
00> 15781
01> 8878
00> 15771
01> 8802
00> 15790
01> 8832
00> 15801
01> 8894
00> 15822
01> 8922
00> 15804
01> 8849
00> 15778
01> 8774
00> 15781
01> 8823
00> 15806
01> 8909
00> 15820
01> 8945
00> 15801
01> 8874
00> 15777
01> 8803
00> 15785
01> 8840
00> 15804
01> 8936
00> 15830
01> 8953
00> 15808
01> 8876
00> 15783
01> 8774
00> 15780
01> 8806
00> 15802
01> 8896
00> 15813
01> 8929
00> 15798
01> 8874
00> 15766
01> 8800
00> 15780
01> 8823
00> 15804
01> 8903
00> 15813
01> 8951
00> 15796
01> 8877
00> 15773
01> 8784
00> 15786
01> 8819
00> 15811
01> 8895
00> 15814
01> 8948
00> 15783
01> 8882
00> 15754
01> 8803
00> 15777
01> 8813
00> 15814
01> 8888
00> 15822
01> 8939
00> 15795
01> 8861
00> 15762
01> 8789
00> 15780
01> 8816
00> 15797
01> 8893
00> 15814
01> 8936
00> 15783
01> 8874
00> 15772
01> 8791
00> 15791
01> 8828
00> 15806
01> 8904
00> 15823
01> 8969
00> 15796
01> 8893
00> 15779
01> 8798
00> 15784
01> 8821
00> 15806
01> 8895
00> 15816
01> 8958
00> 15795
01> 8919
00> 15786
01> 8826
00> 15803
01> 8834
00> 15818
01> 8900
00> 15814
01> 8973
00> 15798
01> 8910
00> 15786
01> 8816
00> 15785
01> 8838
00> 15808
01> 8901
00> 15821
01> 8942
00> 15799
01> 8884
00> 15779
01> 8814
00> 15790
01> 8828
00> 15801
01> 8904
00> 15823
01> 8949
00> 15796
01> 8895
00> 15769
01> 8803
00> 15779
01> 8836
00> 15793
01> 8924
00> 15813
01> 8941
00> 15800
01> 8878
00> 15783
01> 8804
00> 15782
01> 8821
00> 15806
01> 8893
00> 15818
01> 8943
00> 15800
01> 8892
00> 15786
01> 8798
00> 15784
01> 8828
00> 15808
01> 8918
00> 15821
01> 8953
00> 15793
01> 8896
00> 15774
01> 8812
00> 15784
01> 8841
00> 15805
01> 8897
00> 15814
01> 8946
00> 15797
01> 8896
00> 15778
01> 8816
00> 15795
01> 8830
00> 15806
01> 8909
00> 15824
01> 8965
00> 15811
01> 8901
00> 15765
01> 8812
00> 15774
01> 8807
00> 15794
01> 8875
00> 15821
01> 8931
00> 15804
01> 8904
00> 15773
01> 8804
00> 15778
01> 8813
00> 15791
01> 8886
00> 15808
01> 8956
00> 15801
01> 8888
00> 15776
01> 8800
00> 15774
01> 8821
00> 15791
01> 8899
00> 15808
01> 8971
00> 15808
01> 8899
00> 15789
01> 8803
00> 15802
01> 8827
00> 15811
01> 8902
00> 15816
01> 8966
00> 15811
01> 8919
00> 15781
01> 8806
00> 15776
01> 8824
00> 15807
01> 8901
00> 15825
01> 8964
00> 15811
01> 8929
00> 15783
01> 8846
00> 15791
01> 8850
00> 15808
01> 8915
00> 15831
01> 8968
00> 15803
01> 8921
00> 15769
01> 8818
00> 15789
01> 8837
00> 15801
01> 8924
00> 15818
01> 8963
00> 15804
01> 8904
00> 15783
01> 8828
00> 15786
01> 8839
00> 15811
01> 8898
00> 15824
01> 8956
00> 15805
01> 8901
00> 15778
01> 8808
00> 15784
01> 8810
00> 15801
01> 8896
00> 15813
01> 8965
00> 15809
01> 8913
00> 15788
01> 8810
00> 15803
01> 8829
00> 15815
01> 8913
00> 15826
01> 8982
00> 15821
01> 8953
00> 15796
01> 8843
00> 15785
01> 8821
00> 15807
01> 8902
00> 15824
01> 8969
00> 15824
01> 8930
00> 15787
01> 8821
00> 15791
01> 8828
00> 15815
01> 8911
00> 15836
01> 8964
00> 15812
01> 8925
00> 15793
01> 8836
00> 15784
01> 8841
00> 15811
01> 8910
00> 15831
01> 8960
00> 15798
01> 8911
00> 15785
01> 8811
00> 15789
01> 8814
00> 15806
01> 8889
00> 15825
01> 8950
00> 15808
01> 8953
00> 15786
01> 8834
00> 15789
01> 8802
00> 15787
01> 8890
00> 15796
01> 8968
00> 15797
01> 8904
00> 15771
01> 8802
00> 15772
01> 8807
00> 15781
01> 8883
00> 15801
01> 8935
00> 15783
01> 8903
00> 15758
01> 8805
00> 15768
01> 8794
00> 15782
01> 8881
00> 15804
01> 8952
00> 15789
01> 8922
00> 15778
01> 8806
00> 15776
01> 8804
00> 15791
01> 8891
00> 15813
01> 8951
00> 15801
01> 8913
00> 15781
01> 8827
00> 15786
01> 8847
00> 15818
01> 8920
00> 15829
01> 8986
00> 15819
01> 8946
00> 15784
01> 8844
00> 15803
01> 8839
00> 15851
01> 8943
00> 15881
01> 9008
00> 15866
01> 8981
00> 15833
01> 8903
00> 15833
01> 8921
00> 15875
01> 9038
00> 15903
01> 9138
00> 15883
01> 9114
00> 15863
01> 9036
00> 15894
01> 9095
00> 15914
01> 9211
00> 15943
01> 9323
00> 15968
01> 9384
00> 15998
01> 9381
00> 16031
01> 9471
00> 16092
01> 9637
00> 16142
01> 9778
00> 16155
01> 9817
00> 16144
01> 9760
00> 16156
01> 9772
00> 16176
01> 9849
00> 16206
01> 9936
00> 16200
01> 9936
00> 16148
01> 9815
00> 16152
01> 9794
00> 16172
01> 9844
00> 16184
01> 9892
00> 16161
01> 9859
00> 16121
01> 9756
00> 16132
01> 9703
00> 16156
01> 9757
00> 16167
01> 9823
00> 16148
01> 9784
00> 16104
01> 9637
00> 16096
01> 9608
00> 16115
01> 9676
00> 16128
01> 9731
00> 16134
01> 9681
00> 16106
01> 9556
00> 16082
01> 9528
00> 16104
01> 9581
00> 16101
01> 9628
00> 16083
01> 9571
00> 16057
01> 9440
00> 16043
01> 9413
00> 16054
01> 9456
00> 16066
01> 9519
00> 16048
01> 9474
00> 16010
01> 9317
00> 16003
01> 9299
00> 16026
01> 9366
00> 16035
01> 9408
00> 16021
01> 9359
00> 15993
01> 9243
00> 15980
01> 9214
00> 15993
01> 9281
00> 16002
01> 9345
00> 15984
01> 9288
00> 15934
01> 9171
00> 15929
01> 9126
00> 15943
01> 9178
00> 15963
01> 9233
00> 15946
01> 9197
00> 15906
01> 9071
00> 15894
01> 9030
00> 15915
01> 9087
00> 15914
01> 9134
00> 15893
01> 9116
00> 15875
01> 9001
00> 15887
01> 8983
00> 15884
01> 9070
00> 15899
01> 9138
00> 15910
01> 9100
00> 15875
01> 8997
00> 15861
01> 8984
00> 15875
01> 9049
00> 15886
01> 9114
00> 15889
01> 9123
00> 15874
01> 9034
00> 15861
01> 8990
00> 15876
01> 9053
00> 15895
01> 9139
00> 15886
01> 9115
00> 15863
01> 9000
00> 15866
01> 8974
00> 15881
01> 9032
00> 15901
01> 9091
00> 15889
01> 9088
00> 15870
01> 8986
00> 15841
01> 8949
00> 15864
01> 9012
00> 15885
01> 9071
00> 15883
01> 9053
00> 15844
01> 8939
00> 15843
01> 8893
00> 15859
01> 8957
00> 15884
01> 9045
00> 15885
01> 9039
00> 15849
01> 8928
00> 15849
01> 8904
00> 15862
01> 8969
00> 15873
01> 9024
00> 15849
01> 9024
00> 15806
01> 8920
00> 15802
01> 8851
00> 15813
01> 8926
00> 15844
01> 9006
00> 15848
01> 9021
00> 15823
01> 8919
00> 15819
01> 8879
00> 15826
01> 8940
00> 15853
01> 9013
00> 15845
01> 9019
00> 15829
01> 8926
00> 15806
01> 8876
00> 15826
01> 8942
00> 15859
01> 9027
00> 15850
01> 9032
00> 15830
01> 8913
00> 15829
01> 8873
00> 15845
01> 8938
00> 15859
01> 9009
00> 15848
01> 9013
00> 15828
01> 8911
00> 15804
01> 8868
00> 15821
01> 8931
00> 15849
01> 9023
00> 15854
01> 9034
00> 15828
01> 8921
00> 15818
01> 8863
00> 15831
01> 8918
00> 15854
01> 9001
00> 15849
01> 9011
00> 15815
01> 8909
00> 15808
01> 8865
00> 15814
01> 8934
00> 15846
01> 8994
00> 15856
01> 8993
00> 15820
01> 8896
00> 15808
01> 8861
00> 15824
01> 8931
00> 15849
01> 9009
00> 15852
01> 9007
00> 15818
01> 8896
00> 15803
01> 8848
00> 15823
01> 8903
00> 15841
01> 8971
00> 15844
01> 8988
00> 15818
01> 8893
00> 15813
01> 8853
00> 15829
01> 8903
00> 15844
01> 8968
00> 15834
01> 8979
00> 15809
01> 8888
00> 15799
01> 8847
00> 15819
01> 8892
00> 15829
01> 8974
00> 15836
01> 8995
00> 15810
01> 8902
00> 15795
01> 8847
00> 15815
01> 8907
00> 15833
01> 8984
00> 15831
01> 8998
00> 15806
01> 8894
00> 15808
01> 8849
00> 15825
01> 8911
00> 15841
01> 8987
00> 15851
01> 9014
00> 15821
01> 8919
00> 15816
01> 8859
00> 15824
01> 8919
00> 15846
01> 8984
00> 15851
01> 8998
00> 15824
01> 8885
00> 15801
01> 8836
00> 15821
01> 8901
00> 15848
01> 8971
00> 15844
01> 8996
00> 15813
01> 8897
00> 15804
01> 8841
00> 15809
01> 8902
00> 15833
01> 8970
00> 15839
01> 8989
00> 15804
01> 8886
00> 15803
01> 8832
00> 15811
01> 8898
00> 15824
01> 8969
00> 15835
01> 8980
00> 15809
01> 8885
00> 15788
01> 8833
00> 15809
01> 8893
00> 15838
01> 8973
00> 15844
01> 9009
00> 15798
01> 8907
00> 15787
01> 8830
00> 15808
01> 8883
00> 15825
01> 8947
00> 15836
01> 8975
00> 15801
01> 8883
00> 15776
01> 8819
00> 15798
01> 8869
00> 15816
01> 8960
00> 15826
01> 8989
00> 15799
01> 8891
00> 15778
01> 8819
00> 15800
01> 8886
00> 15828
01> 8969
00> 15831
01> 8997
00> 15805
01> 8894
00> 15788
01> 8808
00> 15791
01> 8856
00> 15816
01> 8950
00> 15820
01> 8991
00> 15788
01> 8892
00> 15769
01> 8839
00> 15777
01> 8876
00> 15795
01> 8943
00> 15798
01> 8964
00> 15766
01> 8884
00> 15759
01> 8824
00> 15783
01> 8888
00> 15796
01> 8959
00> 15803
01> 8973
00> 15774
01> 8873
00> 15761
01> 8804
00> 15764
01> 8863
00> 15807
01> 8953
00> 15815
01> 8969
00> 15790
01> 8877
00> 15763
01> 8812
00> 15768
01> 8851
00> 15799
01> 8933
00> 15808
01> 8967
00> 15782
01> 8871
00> 15767
01> 8814
00> 15779
01> 8852
00> 15796
01> 8933
00> 15809
01> 8963
00> 15782
01> 8861
00> 15779
01> 8790
00> 15789
01> 8855
00> 15814
01> 8947
00> 15823
01> 8974
00> 15803
01> 8885
00> 15786
01> 8808
00> 15793
01> 8859
00> 15823
01> 8959
00> 15834
01> 9013
00> 15803
01> 8906
00> 15783
01> 8823
00> 15794
01> 8863
00> 15815
01> 8943
00> 15831
01> 9000
00> 15791
01> 8914
00> 15768
01> 8828
00> 15793
01> 8860
00> 15824
01> 8946
00> 15819
01> 8980
00> 15793
01> 8888
00> 15778
01> 8805
00> 15793
01> 8850
00> 15806
01> 8940
00> 15818
01> 8982
00> 15787
01> 8900
00> 15759
01> 8809
00> 15779
01> 8866
00> 15804
01> 8953
00> 15810
01> 8989
00> 15786
01> 8896
00> 15762
01> 8796
00> 15776
01> 8843
00> 15803
01> 8932
00> 15819
01> 8991
00> 15788
01> 8912
00> 15770
01> 8818
00> 15784
01> 8857
00> 15807
01> 8936
00> 15819
01> 8977
00> 15782
01> 8885
00> 15768
01> 8800
00> 15786
01> 8858
00> 15813
01> 8938
00> 15824
01> 8978
00> 15797
01> 8888
00> 15771
01> 8808
00> 15783
01> 8847
00> 15807
01> 8931
00> 15818
01> 8980
00> 15789
01> 8884
00> 15769
01> 8805
00> 15780
01> 8847
00> 15818
01> 8938
00> 15823
01> 8985
00> 15788
01> 8912
00> 15771
01> 8805
00> 15786
01> 8850
00> 15816
01> 8943
00> 15828
01> 8989
00> 15798
01> 8898
00> 15769
01> 8804
00> 15784
01> 8846
00> 15811
01> 8941
00> 15831
01> 8991
00> 15803
01> 8896
00> 15781
01> 8799
00> 15786
01> 8820
00> 15806
01> 8906
00> 15826
01> 8974
00> 15804
01> 8919
00> 15784
01> 8826
00> 15798
01> 8852
00> 15822
01> 8938
00> 15841
01> 8991
00> 15809
01> 8901
00> 15784
01> 8797
00> 15798
01> 8838
00> 15823
01> 8918
00> 15834
01> 8988
00> 15813
01> 8911
00> 15793
01> 8806
00> 15797
01> 8841
00> 15818
01> 8928
00> 15836
01> 8987
00> 15817
01> 8908
00> 15796
01> 8813
00> 15798
01> 8853
00> 15816
01> 8948
00> 15830
01> 8988
00> 15811
01> 8914
00> 15788
01> 8826
00> 15798
01> 8862
00> 15822
01> 8947
00> 15836
01> 8985
00> 15805
01> 8901
00> 15787
01> 8811
00> 15791
01> 8856
00> 15819
01> 8943
00> 15840
01> 8996
00> 15819
01> 8919
00> 15789
01> 8822
00> 15797
01> 8847
00> 15821
01> 8936
00> 15839
01> 8990
00> 15821
01> 8929
00> 15796
01> 8845
00> 15806
01> 8889
00> 15837
01> 8968
00> 15852
01> 9019
00> 15826
01> 8945
00> 15798
01> 8835
00> 15805
01> 8859
00> 15827
01> 8968
00> 15848
01> 9011
00> 15822
01> 8935
00> 15799
01> 8828
00> 15808
01> 8873
00> 15836
01> 8978
00> 15859
01> 9033
00> 15836
01> 8955
00> 15806
01> 8855
00> 15818
01> 8887
00> 15849
01> 8984
00> 15869
01> 9046
00> 15854
01> 8976
00> 15827
01> 8874
00> 15835
01> 8898
00> 15858
01> 8983
00> 15873
01> 9043
00> 15851
01> 8973
00> 15822
01> 8872
00> 15835
01> 8903
00> 15865
01> 8993
00> 15881
01> 9051
00> 15853
01> 8983
00> 15824
01> 8874
00> 15834
01> 8897
00> 15854
01> 8993
00> 15862
01> 9047
00> 15832
01> 8969
00> 15811
01> 8865
00> 15826
01> 8893
00> 15845
01> 8971
00> 15866
01> 9024
00> 15843
01> 8953
00> 15814
01> 8845
00> 15830
01> 8884
00> 15853
01> 8976
00> 15869
01> 9038
00> 15853
01> 8963
00> 15824
01> 8850
00> 15834
01> 8889
00> 15856
01> 8996
00> 15878
01> 9059
00> 15852
01> 8984
00> 15829
01> 8857
00> 15831
01> 8873
00> 15858
01> 8971
00> 15884
01> 9046
00> 15857
01> 8969
00> 15820
01> 8848
00> 15821
01> 8885
00> 15853
01> 8985
00> 15876
01> 9043
00> 15861
01> 8971
00> 15824
01> 8851
00> 15833
01> 8877
00> 15858
01> 8987
00> 15871
01> 9058
00> 15848
01> 8973
00> 15808
01> 8843
00> 15821
01> 8882
00> 15853
01> 8995
00> 15876
01> 9074
00> 15846
01> 8991
00> 15814
01> 8849
00> 15823
01> 8869
00> 15846
01> 8971
00> 15867
01> 9055
00> 15847
01> 8983
00> 15811
01> 8839
00> 15819
01> 8863
00> 15848
01> 8969
00> 15864
01> 9034
00> 15836
01> 8952
00> 15801
01> 8816
00> 15806
01> 8841
00> 15838
01> 8963
00> 15858
01> 9049
00> 15836
01> 8974
00> 15795
01> 8829
00> 15788
01> 8835
00> 15818
01> 8946
00> 15844
01> 9039
00> 15818
01> 8963
00> 15785
01> 8819
00> 15797
01> 8846
00> 15826
01> 8963

01> 9044
00> 15823
01> 8963
00> 15784
01> 8821
00> 15801
01> 8846
00> 15837
01> 8968
00> 15863
01> 9048
00> 15839
01> 8974
00> 15801
01> 8840
00> 15808
01> 8854
00> 15837
01> 8956
00> 15859
01> 9034
00> 15841
01> 8971
00> 15804
01> 8841
00> 15812
01> 8862
00> 15838
01> 8964
00> 15860
01> 9049
00> 15832
01> 8974
00> 15793
01> 8824
00> 15807
01> 8841
00> 15838
01> 8952
00> 15858
01> 9036
00> 15839
01> 8976
00> 15806
01> 8834
00> 15804
01> 8845
00> 15833
01> 8946
00> 15858
01> 9024
00> 15832
01> 8953
00> 15794
01> 8808
00> 15802
01> 8836
00> 15830
01> 8946
00> 15856
01> 9034
00> 15832
01> 8968
00> 15786
01> 8826
00> 15795
01> 8839
00> 15825
01> 8933
00> 15847
01> 9021
00> 15819
01> 8960
00> 15783
01> 8823
00> 15793
01> 8841
00> 15823
01> 8955
00> 15849
01> 9046
00> 15824
01> 8982
00> 15785
01> 8825
00> 15791
01> 8836
00> 15829
01> 8968
00> 15859
01> 9063
00> 15834
01> 8993
00> 15789
01> 8837
00> 15798
01> 8854
00> 15829
01> 8972
00> 15853
01> 9063
00> 15838
01> 9013
00> 15798
01> 8856
00> 15799
01> 8863
00> 15836
01> 8996
00> 15862
01> 9090
00> 15834
01> 9003
00> 15785
01> 8826
00> 15791
01> 8834
00> 15828
01> 8960
00> 15857
01> 9079
00> 15838
01> 9024
00> 15793
01> 8853
00> 15796
01> 8859
00> 15830
01> 8986
00> 15858
01> 9079
00> 15833
01> 8999
00> 15791
01> 8838
00> 15793
01> 8869
00> 15829
01> 9002
00> 15865
01> 9094
00> 15838
01> 9028
00> 15801
01> 8871
00> 15809
01> 8879
00> 15841
01> 8997
00> 15869
01> 9088
00> 15847
01> 9026
00> 15801
01> 8866
00> 15800
01> 8876
00> 15831
01> 8999
00> 15863
01> 9107
00> 15846
01> 9044
00> 15802
01> 8868
00> 15808
01> 8859
00> 15843
01> 8982
00> 15869
01> 9098
00> 15847
01> 9052
00> 15800
01> 8886
00> 15801
01> 8888
00> 15836
01> 9009
00> 15867
01> 9109
00> 15850
01> 9051
00> 15799
01> 8883
00> 15805
01> 8888
00> 15844
01> 9012
00> 15868
01> 9101
00> 15828
01> 9031
00> 15769
01> 8843
00> 15764
01> 8829
00> 15784
01> 8943
00> 15801
01> 9034
00> 15781
01> 8971
00> 15721
01> 8791
00> 15714
01> 8782
00> 15749
01> 8899
00> 15777
01> 9004
00> 15751
01> 8953
00> 15708
01> 8788
00> 15709
01> 8801
00> 15737
01> 8920
00> 15760
01> 9024
00> 15737
01> 8981
00> 15686
01> 8809
00> 15691
01> 8815
00> 15735
01> 8953
00> 15774
01> 9066
00> 15759
01> 9016
00> 15706
01> 8828
00> 15699
01> 8811
00> 15733
01> 8933
00> 15769
01> 9039
00> 15749
01> 8999
00> 15703
01> 8828
00> 15706
01> 8822
00> 15741
01> 8939
00> 15774
01> 9034
00> 15761
01> 8984
00> 15717
01> 8821
00> 15719
01> 8811
00> 15750
01> 8940
00> 15779
01> 9048
00> 15761
01> 9001
00> 15709
01> 8813
00> 15708
01> 8786
00> 15738
01> 8909
00> 15769
01> 9026
00> 15754
01> 8982
00> 15708
01> 8807
00> 15705
01> 8788
00> 15738
01> 8914
00> 15774
01> 9025
00> 15754
01> 8975
00> 15701
01> 8787
00> 15699
01> 8768
00> 15737
01> 8898
00> 15775
01> 9011
00> 15758
01> 8974
00> 15707
01> 8797
00> 15705
01> 8774
00> 15736
01> 8899
00> 15771
01> 9011
00> 15763
01> 8983
00> 15714
01> 8801
00> 15704
01> 8774
00> 15733
01> 8890
00> 15764
01> 8993
00> 15748
01> 8946
00> 15697
01> 8769
00> 15694
01> 8759
00> 15728
01> 8894
00> 15758
01> 9003
00> 15744
01> 8949
00> 15689
01> 8761
00> 15678
01> 8728
00> 15716
01> 8855
00> 15753
01> 8980
00> 15740
01> 8943
00> 15686
01> 8761
00> 15681
01> 8735
00> 15714
01> 8856
00> 15747
01> 8972
00> 15738
01> 8931
00> 15686
01> 8738
00> 15674
01> 8714
00> 15707
01> 8846
00> 15746
01> 8966
00> 15733
01> 8934
00> 15683
01> 8753
00> 15674
01> 8714
00> 15711
01> 8831
00> 15749
01> 8946
00> 15735
01> 8919
00> 15680
01> 8733
00> 15674
01> 8691
00> 15711
01> 8823
00> 15746
01> 8954
00> 15731
01> 8934
00> 15687
01> 8749
00> 15679
01> 8702
00> 15695
01> 8812
00> 15725
01> 8919
00> 15716
01> 8894
00> 15663
01> 8713
00> 15653
01> 8668
00> 15686
01> 8786
00> 15719
01> 8906
00> 15714
01> 8893
00> 15664
01> 8714
00> 15649
01> 8659
00> 15683
01> 8766
00> 15721
01> 8897
00> 15705
01> 8887
00> 15657
01> 8707
00> 15649
01> 8664
00> 15681
01> 8778
00> 15719
01> 8894
00> 15708
01> 8869
00> 15656
01> 8697
00> 15651
01> 8654
00> 15675
01> 8765
00> 15713
01> 8868
00> 15716
01> 8868
00> 15673
01> 8720
00> 15661
01> 8674
00> 15687
01> 8780
00> 15723
01> 8901
00> 15720
01> 8895
00> 15673
01> 8718
00> 15661
01> 8665
00> 15689
01> 8779
00> 15719
01> 8889
00> 15712
01> 8877
00> 15667
01> 8715
00> 15654
01> 8660
00> 15676
01> 8756
00> 15706
01> 8857
00> 15703
01> 8856
00> 15660
01> 8703
00> 15649
01> 8643
00> 15674
01> 8736
00> 15701
01> 8846
00> 15699
01> 8853
00> 15653
01> 8706
00> 15645
01> 8648
00> 15674
01> 8748
00> 15697
01> 8853
00> 15695
01> 8848
00> 15659
01> 8698
00> 15648
01> 8639
00> 15675
01> 8734
00> 15702
01> 8839
00> 15696
01> 8842
00> 15654
01> 8698
00> 15649
01> 8642
00> 15677
01> 8732
00> 15700
01> 8838
00> 15696
01> 8839
00> 15654
01> 8701
00> 15643
01> 8634
00> 15668
01> 8709
00> 15692
01> 8812
00> 15696
01> 8823
00> 15652
01> 8684
00> 15643
01> 8612
00> 15659
01> 8684
00> 15689
01> 8797
00> 15691
01> 8820
00> 15651
01> 8686
00> 15639
01> 8633
00> 15661
01> 8713
00> 15691
01> 8813
00> 15693
01> 8834
00> 15661
01> 8713
00> 15647
01> 8644
00> 15664
01> 8713
00> 15688
01> 8802
00> 15689
01> 8806
00> 15651
01> 8682
00> 15636
01> 8624
00> 15662
01> 8703
00> 15686
01> 8795
00> 15689
01> 8816
00> 15654
01> 8698
00> 15637
01> 8634
00> 15662
01> 8695
00> 15693
01> 8788
00> 15693
01> 8809
00> 15661
01> 8693
00> 15642
01> 8634
00> 15662
01> 8704
00> 15695
01> 8801
00> 15700
01> 8814
00> 15676
01> 8698
00> 15658
01> 8661
00> 15673
01> 8749
00> 15719
01> 8875
00> 15741
01> 8916
00> 15718
01> 8822
00> 15723
01> 8780
00> 15743
01> 8870
00> 15774
01> 8982
00> 15794
01> 9026
00> 15764
01> 8928
00> 15755
01> 8876
00> 15779
01> 8945
00> 15809
01> 9042
00> 15828
01> 9070
00> 15798
01> 8959
00> 15779
01> 8889
00> 15788
01> 8928
00> 15801
01> 9003
00> 15809
01> 9019
00> 15781
01> 8906
00> 15766
01> 8839
00> 15783
01> 8891
00> 15801
01> 8976
00> 15804
01> 9008
00> 15779
01> 8908
00> 15766
01> 8840
00> 15777
01> 8891
00> 15791
01> 8971
00> 15799
01> 8996
00> 15768
01> 8889
00> 15748
01> 8815
00> 15769
01> 8875
00> 15797
01> 8978
00> 15803
01> 9008
00> 15780
01> 8898
00> 15759
01> 8822
00> 15771
01> 8884
00> 15798
01> 8978
00> 15809
01> 9007
00> 15774
01> 8904
00> 15760
01> 8834
00> 15777
01> 8893
00> 15791
01> 8970
00> 15806
01> 8999
00> 15778
01> 8904
00> 15761
01> 8836
00> 15766
01> 8883
00> 15784
01> 8959
00> 15786
01> 8980
00> 15761
01> 8884
00> 15749
01> 8821
00> 15766
01> 8877
00> 15789
01> 8974
00> 15805
01> 9012
00> 15776
01> 8903
00> 15758
01> 8822
00> 15775
01> 8884
00> 15791
01> 8974
00> 15799
01> 9013
00> 15773
01> 8911
00> 15749
01> 8825
00> 15759
01> 8868
00> 15791
01> 8962
00> 15803
01> 9003
00> 15778
01> 8916
00> 15760
01> 8849
00> 15774
01> 8898
00> 15798
01> 8981
00> 15805
01> 9011
00> 15771
01> 8909
00> 15744
01> 8823
00> 15761
01> 8874
00> 15789
01> 8972
00> 15800
01> 9006
00> 15767
01> 8901
00> 15747
01> 8819
00> 15766
01> 8876
00> 15796
01> 8964
00> 15804
01> 9003
00> 15771
01> 8904
00> 15758
01> 8819
00> 15776
01> 8871
00> 15797
01> 8957
00> 15798
01> 9001
00> 15774
01> 8903
00> 15756
01> 8806
00> 15771
01> 8852
00> 15802
01> 8964
00> 15813
01> 9021
00> 15779
01> 8923
00> 15754
01> 8826
00> 15768
01> 8863
00> 15791
01> 8961
00> 15801
01> 9009
00> 15779
01> 8914
00> 15764
01> 8830
00> 15766
01> 8869
00> 15791
01> 8946
00> 15803
01> 8990
00> 15771
01> 8908
00> 15755
01> 8819
00> 15763
01> 8848
00> 15791
01> 8926
00> 15799
01> 8967
00> 15768
01> 8874
00> 15744
01> 8796
00> 15760
01> 8851
00> 15789
01> 8951
00> 15803
01> 8989
00> 15772
01> 8890
00> 15751
01> 8798
00> 15766
01> 8851
00> 15788
01> 8937
00> 15803
01> 8986
00> 15778
01> 8889
00> 15759
01> 8805
00> 15771
01> 8848
00> 15795
01> 8943
00> 15809
01> 8993
00> 15783
01> 8895
00> 15756
01> 8793
00> 15764
01> 8841
00> 15786
01> 8939
00> 15799
01> 8985
00> 15774
01> 8897
00> 15758
01> 8814
00> 15773
01> 8864
00> 15793
01> 8945
00> 15798
01> 8985
00> 15776
01> 8899
00> 15754
01> 8809
00> 15764
01> 8854
00> 15786
01> 8948
00> 15793
01> 8986
00> 15766
01> 8898
00> 15746
01> 8796
00> 15756
01> 8828
00> 15785
01> 8933
00> 15793
01> 8994
00> 15766
01> 8912
00> 15743
01> 8816
00> 15753
01> 8850
00> 15770
01> 8940
00> 15779
01> 8978
00> 15753
01> 8891
00> 15731
01> 8798
00> 15751
01> 8836
00> 15775
01> 8926
00> 15783
01> 8976
00> 15761
01> 8885
00> 15739
01> 8791
00> 15749
01> 8835
00> 15781
01> 8930
00> 15794
01> 8981
00> 15763
01> 8898
00> 15743
01> 8807
00> 15754
01> 8841
00> 15778
01> 8924
00> 15798
01> 8979
00> 15776
01> 8900
00> 15746
01> 8794
00> 15755
01> 8826
00> 15788
01> 8917
00> 15803
01> 8982
00> 15783
01> 8901
00> 15754
01> 8799
00> 15769
01> 8846
00> 15800
01> 8941
00> 15809
01> 8995
00> 15771
01> 8906
00> 15748
01> 8795
00> 15761
01> 8825
00> 15792
01> 8924
00> 15809
01> 8984
00> 15778
01> 8897
00> 15744
01> 8793
00> 15753
01> 8826
00> 15784
01> 8912
00> 15799
01> 8968
00> 15766
01> 8886
00> 15733
01> 8779
00> 15744
01> 8808
00> 15769
01> 8897
00> 15789
01> 8959
00> 15767
01> 8886
00> 15734
01> 8778
00> 15741
01> 8806
00> 15762
01> 8896
00> 15780
01> 8961
00> 15754
01> 8878
00> 15726
01> 8764
00> 15733
01> 8798
00> 15759
01> 8898
00> 15784
01> 8963
00> 15764
01> 8889
00> 15730
01> 8776
00> 15742
01> 8810
00> 15769
01> 8911
00> 15789
01> 8975
00> 15764
01> 8894
00> 15733
01> 8778
00> 15734
01> 8808
00> 15763
01> 8903
00> 15788
01> 8974
00> 15767
01> 8905
00> 15743
01> 8798
00> 15754
01> 8823
00> 15782
01> 8923
00> 15800
01> 8988
00> 15773
01> 8908
00> 15740
01> 8790
00> 15748
01> 8813
00> 15773
01> 8908
00> 15791
01> 8963
00> 15774
01> 8898
00> 15754
01> 8806
00> 15758
01> 8844
00> 15780
01> 8940
00> 15794
01> 8994
00> 15774
01> 8918
00> 15744
01> 8796
00> 15748
01> 8815
00> 15775
01> 8918
00> 15803
01> 8985
00> 15771
01> 8916
00> 15745
01> 8806
00> 15758
01> 8832
00> 15772
01> 8919
00> 15789
01> 8986
00> 15765
01> 8913
00> 15729
01> 8794
00> 15747
01> 8807
00> 15769
01> 8896
00> 15784
01> 8965
00> 15759
01> 8911
00> 15731
01> 8801
00> 15741
01> 8811
00> 15765
01> 8896
00> 15791
01> 8975
00> 15766
01> 8909
00> 15731
01> 8789
00> 15743
01> 8811
00> 15770
01> 8899
00> 15787
01> 8964
00> 15759
01> 8896
00> 15719
01> 8789
00> 15721
01> 8801
00> 15741
01> 8893
00> 15758
01> 8958
00> 15751
01> 8892
00> 15712
01> 8769
00> 15713
01> 8777
00> 15743
01> 8864
00> 15764
01> 8946
00> 15742
01> 8894
00> 15714
01> 8777
00> 15721
01> 8793
00> 15744
01> 8889
00> 15764
01> 8956
00> 15749
01> 8900
00> 15718
01> 8778
00> 15715
01> 8788
00> 15738
01> 8878
00> 15764
01> 8957
00> 15744
01> 8901
00> 15719
01> 8777
00> 15722
01> 8780
00> 15741
01> 8868
00> 15758
01> 8936
00> 15741
01> 8878
00> 15710
01> 8771
00> 15716
01> 8788
00> 15749
01> 8882
00> 15772
01> 8947
00> 15746
01> 8885
00> 15704
01> 8751
00> 15706
01> 8759
00> 15732
01> 8857
00> 15759
01> 8943
00> 15739
01> 8886
00> 15708
01> 8763
00> 15711
01> 8781
00> 15741
01> 8870
00> 15768
01> 8951
00> 15753
01> 8904
00> 15707
01> 8774
00> 15703
01> 8776
00> 15727
01> 8861
00> 15755
01> 8951
00> 15749
01> 8910
00> 15723
01> 8788
00> 15729
01> 8794
00> 15751
01> 8880
00> 15773
01> 8948
00> 15763
01> 8896
00> 15730
01> 8774
00> 15732
01> 8784
00> 15758
01> 8883
00> 15783
01> 8956
00> 15762
01> 8913
00> 15726
01> 8785
00> 15728
01> 8779
00> 15757
01> 8864
00> 15777
01> 8948
00> 15761
01> 8908
00> 15724
01> 8791
00> 15718
01> 8781
00> 15736
01> 8865
00> 15754
01> 8940
00> 15737
01> 8891
00> 15698
01> 8766
00> 15697
01> 8762
00> 15721
01> 8847
00> 15743
01> 8934
00> 15743
01> 8911
00> 15713
01> 8803
00> 15713
01> 8803
00> 15739
01> 8888
00> 15757
01> 8951
00> 15743
01> 8914
00> 15712
01> 8799
00> 15714
01> 8792
00> 15736
01> 8868
00> 15757
01> 8944
00> 15749
01> 8912
00> 15719
01> 8798
00> 15716
01> 8794
00> 15741
01> 8879
00> 15759
01> 8958
00> 15739
01> 8929
00> 15706
01> 8807
00> 15704
01> 8794
00> 15729
01> 8873
00> 15753
01> 8956
00> 15741
01> 8924
00> 15698
01> 8791
00> 15693
01> 8776
00> 15722
01> 8872
00> 15748
01> 8952
00> 15735
01> 8917
00> 15706
01> 8799
00> 15709
01> 8792
00> 15739
01> 8874
00> 15768
01> 8959
00> 15764
01> 8936
00> 15730
01> 8812
00> 15725
01> 8805
00> 15746
01> 8887
00> 15766
01> 8965
00> 15758
01> 8932
00> 15724
01> 8799
00> 15715
01> 8781
00> 15736
01> 8864
00> 15758
01> 8950
00> 15745
01> 8926
00> 15706
01> 8790
00> 15697
01> 8756
00> 15712
01> 8832
00> 15728
01> 8914
00> 15721
01> 8894
00> 15691
01> 8778
00> 15692
01> 8766
00> 15711
01> 8842
00> 15733
01> 8918
00> 15723
01> 8881
00> 15688
01> 8753
00> 15689
01> 8741
00> 15714
01> 8838
00> 15740
01> 8933
00> 15728
01> 8908
00> 15690
01> 8774
00> 15688
01> 8753
00> 15711
01> 8841
00> 15734
01> 8930
00> 15723
01> 8908
00> 15691
01> 8783
00> 15691
01> 8767
00> 15718
01> 8846
00> 15747
01> 8932
00> 15740
01> 8906
00> 15709
01> 8778
00> 15711
01> 8755
00> 15733
01> 8838
00> 15758
01> 8935
00> 15755
01> 8929
00> 15717
01> 8806
00> 15713
01> 8776
00> 15736
01> 8859
00> 15758
01> 8943
00> 15751
01> 8928
00> 15712
01> 8804
00> 15705
01> 8772
00> 15724
01> 8858
00> 15756
01> 8951
00> 15750
01> 8942
00> 15717
01> 8823
00> 15712
01> 8796
00> 15734
01> 8873
00> 15759
01> 8966
00> 15761
01> 8963
00> 15737
01> 8851
00> 15734
01> 8824
00> 15749
01> 8894
00> 15769
01> 8973
00> 15763
01> 8964
00> 15729
01> 8848
00> 15722
01> 8807
00> 15742
01> 8889
00> 15768
01> 8983
00> 15754
01> 8965
00> 15721
01> 8840
00> 15718
01> 8811
00> 15738
01> 8891
00> 15759
01> 8971
00> 15761
01> 8959
00> 15725
01> 8832
00> 15718
01> 8806
00> 15745
01> 8891
00> 15770
01> 8974
00> 15764
01> 8956
00> 15730
01> 8823
00> 15730
01> 8804
00> 15751
01> 8890
00> 15775
01> 8983
00> 15771
01> 8971
00> 15732
01> 8836
00> 15721
01> 8797
00> 15741
01> 8873
00> 15769
01> 8957
00> 15759
01> 8951
00> 15719
01> 8833
00> 15711
01> 8803
00> 15735
01> 8879
00> 15759
01> 8961
00> 15754
01> 8956
00> 15719
01> 8834
00> 15710
01> 8803
00> 15731
01> 8879
00> 15758
01> 8968
00> 15756
01> 8954
00> 15723
01> 8828
00> 15713
01> 8789
00> 15738
01> 8877
00> 15765
01> 8974
00> 15759
01> 8964
00> 15726
01> 8844
00> 15719
01> 8806
00> 15740
01> 8889
00> 15771
01> 8979
00> 15768
01> 8981
00> 15729
01> 8850
00> 15719
01> 8803
00> 15743
01> 8882
00> 15764
01> 8961
00> 15764
01> 8960
00> 15735
01> 8840
00> 15729
01> 8799
00> 15746
01> 8878
00> 15769
01> 8973
00> 15771
01> 8987
00> 15736
01> 8866
00> 15725
01> 8812
00> 15749
01> 8888
00> 15770
01> 8979
00> 15774
01> 8978
00> 15741
01> 8845
00> 15709
01> 8798
00> 15745
01> 8878
00> 15776
01> 8966
00> 15776
01> 8969
00> 15743
01> 8848
00> 15732
01> 8806
00> 15743
01> 8879
00> 15765
01> 8972
00> 15769
01> 8973
00> 15741
01> 8831
00> 15734
01> 8782
00> 15744
01> 8866
00> 15767
01> 8962
00> 15757
01> 8966
00> 15721
01> 8815
00> 15729
01> 8763
00> 15740
01> 8853
00> 15768
01> 8957
00> 15759
01> 8995
00> 15733
01> 8851
00> 15733
01> 8783
00> 15749
01> 8860
00> 15770
01> 8955
00> 15754
01> 8968
00> 15728
01> 8864
00> 15724
01> 8817
00> 15750
01> 8879
00> 15764
01> 8986
00> 15776
01> 8961
00> 15736
01> 8834
00> 15719
01> 8775
00> 15734
01> 8849
00> 15754
01> 8965
00> 15761
01> 8962
00> 15721
01> 8828
00> 15723
01> 8797
00> 15717
01> 8877
00> 15723
01> 8979
00> 15767
01> 8938
00> 15733
01> 8812
00> 15713
01> 8764
00> 15734
01> 8844
00> 15766
01> 8936
00> 15765
01> 8950
00> 15728
01> 8840
00> 15702
01> 8801
00> 15716
01> 8856
00> 15759
01> 8961
00> 15761
01> 8996
00> 15725
01> 8835
00> 15728
01> 8791
00> 15743
01> 8870
00> 15758
01> 8946
00> 15763
01> 8969
00> 15719
01> 8858
00> 15713
01> 8788
00> 15734
01> 8853
00> 15758
01> 8936
00> 15741
01> 8955
00> 15717
01> 8852
00> 15706
01> 8786
00> 15718
01> 8861
00> 15743
01> 8953
00> 15738
01> 8973
00> 15716
01> 8846
00> 15709
01> 8776
00> 15714
01> 8859
00> 15738
01> 8974
00> 15757
01> 8973
00> 15714
01> 8836
00> 15705
01> 8778
00> 15723
01> 8865
00> 15759
01> 8971
00> 15766
01> 8986
00> 15732
01> 8881
00> 15709
01> 8805
00> 15727
01> 8871
00> 15751
01> 8963
00> 15753
01> 8978
00> 15725
01> 8876
00> 15703
01> 8801
00> 15726
01> 8860
00> 15751
01> 8948
00> 15766
01> 8971
00> 15718
01> 8874
00> 15699
01> 8805
00> 15713
01> 8847
00> 15733
01> 8939
00> 15735
01> 8969
00> 15709
01> 8855
00> 15685
01> 8791
00> 15706
01> 8835
00> 15727
01> 8924
00> 15738
01> 8951
00> 15706
01> 8845
00> 15694
01> 8780
00> 15713
01> 8853
00> 15732
01> 8949
00> 15742
01> 8969
00> 15704
01> 8864
00> 15700
01> 8788
00> 15716
01> 8847
00> 15735
01> 8944
00> 15744
01> 8974
00> 15727
01> 8878
00> 15709
01> 8803
00> 15728
01> 8859
00> 15746
01> 8948
00> 15755
01> 8970
00> 15714
01> 8866
00> 15706
01> 8792
00> 15719
01> 8848
00> 15747
01> 8941
00> 15754
01> 8970
00> 15720
01> 8866
00> 15705
01> 8799
00> 15727
01> 8871
00> 15750
01> 8959
00> 15754
01> 8984
00> 15718
01> 8884
00> 15700
01> 8815
00> 15718
01> 8869
00> 15753
01> 8947
00> 15761
01> 8998
00> 15734
01> 8902
00> 15719
01> 8823
00> 15723
01> 8866
00> 15751
01> 8942
00> 15751
01> 8980
00> 15722
01> 8878
00> 15701
01> 8798
00> 15736
01> 8874
00> 15766
01> 8976
00> 15772
01> 9003
00> 15734
01> 8893
00> 15705
01> 8821
00> 15731
01> 8873
00> 15754
01> 8952
00> 15761
01> 8991
00> 15735
01> 8889
00> 15713
01> 8815
00> 15728
01> 8868
00> 15754
01> 8971
00> 15766
01> 9010
00> 15729
01> 8916
00> 15715
01> 8826
00> 15731
01> 8871
00> 15748
01> 8958
00> 15763
01> 8996
00> 15732
01> 8900
00> 15709
01> 8824
00> 15724
01> 8873
00> 15752
01> 8969
00> 15759
01> 9007
00> 15719
01> 8896
00> 15701
01> 8823
00> 15723
01> 8879
00> 15743
01> 8971
00> 15764
01> 9011
00> 15725
01> 8914
00> 15701
01> 8828
00> 15710
01> 8867
00> 15741
01> 8949
00> 15760
01> 8999
00> 15724
01> 8902
00> 15703
01> 8815
00> 15723
01> 8869
00> 15745
01> 8953
00> 15751
01> 8992
00> 15718
01> 8896
00> 15704
01> 8803
00> 15719
01> 8853
00> 15751
01> 8948
00> 15758
01> 9005
00> 15726
01> 8917
00> 15703
01> 8826
00> 15723
01> 8854
00> 15741
01> 8949
00> 15758
01> 8985
00> 15731
01> 8879
00> 15696
01> 8800
00> 15716
01> 8856
00> 15743
01> 8953
00> 15766
01> 9007
00> 15742
01> 8914
00> 15723
01> 8821
00> 15728
01> 8862
00> 15746
01> 8947
00> 15760
01> 8996
00> 15728
01> 8901
00> 15708
01> 8800
00> 15715
01> 8849
00> 15744
01> 8949
00> 15763
01> 9002
00> 15728
01> 8909
00> 15708
01> 8809
00> 15719
01> 8845
00> 15747
01> 8945
00> 15760
01> 9006
00> 15726
01> 8910
00> 15709
01> 8808
00> 15729
01> 8859
00> 15751
01> 8954
00> 15765
01> 9018
00> 15743
01> 8908
00> 15714
01> 8816
00> 15721
01> 8862
00> 15741
01> 8944
00> 15756
01> 8992
00> 15727
01> 8912
00> 15707
01> 8817
00> 15723
01> 8862
00> 15749
01> 8954
00> 15764
01> 9013
00> 15738
01> 8924
00> 15709
01> 8809
00> 15719
01> 8835
00> 15737
01> 8933
00> 15753
01> 8995
00> 15726
01> 8906
00> 15708
01> 8806
00> 15724
01> 8843
00> 15749
01> 8956
00> 15766
01> 9013
00> 15746
01> 8929
00> 15721
01> 8825
00> 15720
01> 8845
00> 15744
01> 8932
00> 15756
01> 8991
00> 15732
01> 8913
00> 15709
01> 8813
00> 15723
01> 8849
00> 15748
01> 8943
00> 15771
01> 9003
00> 15742
01> 8919
00> 15718
01> 8822
00> 15731
01> 8861
00> 15757
01> 8951
00> 15774
01> 8998
00> 15751
01> 8921
00> 15718
01> 8811
00> 15732
01> 8849
00> 15758
01> 8952
00> 15776
01> 9013
00> 15756
01> 8941
00> 15728
01> 8827
00> 15740
01> 8861
00> 15764
01> 8948
00> 15783
01> 9009
00> 15761
01> 8940
00> 15729
01> 8831
00> 15740
01> 8853
00> 15766
01> 8939
00> 15779
01> 8999
00> 15749
01> 8920
00> 15725
01> 8816
00> 15733
01> 8847
00> 15758
01> 8943
00> 15779
01> 9003
00> 15755
01> 8929
00> 15723
01> 8823
00> 15738
01> 8853
00> 15765
01> 8952
00> 15773
01> 9005
00> 15742
01> 8923
00> 15716
01> 8817
00> 15726
01> 8840
00> 15761
01> 8941
00> 15779
01> 9013
00> 15750
01> 8937
00> 15718
01> 8818
00> 15718
01> 8827
00> 15738
01> 8921
00> 15759
01> 8990
00> 15742
01> 8919
00> 15716
01> 8818
00> 15726
01> 8851
00> 15746
01> 8947
00> 15763
01> 9011
00> 15746
01> 8946
00> 15716
01> 8838
00> 15724
01> 8853
00> 15746
01> 8943
00> 15765
01> 9013
00> 15744
01> 8944
00> 15705
01> 8823
00> 15719
01> 8853
00> 15749
01> 8951
00> 15768
01> 9024
00> 15749
01> 8958
00> 15720
01> 8839
00> 15724
01> 8859
00> 15750
01> 8947
00> 15770
01> 9024
00> 15754
01> 8971
00> 15724
01> 8864
00> 15731
01> 8880
00> 15756
01> 8964
00> 15779
01> 9028
00> 15761
01> 8973
00> 15738
01> 8881
00> 15753
01> 8911
00> 15784
01> 9006
00> 15804
01> 9084
00> 15789
01> 9028
00> 15771
01> 8916
00> 15796
01> 8939
00> 15843
01> 9074
00> 15843
01> 9148
00> 15818
01> 9108
00> 15811
01> 9028
00> 15817
01> 9062
00> 15854
01> 9198
00> 15890
01> 9329
00> 15892
01> 9347
00> 15896
01> 9324
00> 15930
01> 9424
00> 15989
01> 9616
00> 16051
01> 9784
00> 16073
01> 9806
00> 16074
01> 9757
00> 16104
01> 9829
00> 16152
01> 9951
00> 16186
01> 10038
00> 16178
01> 10008
00> 16156
01> 9910
00> 16169
01> 9927
00> 16194
01> 10001
00> 16207
01> 10059
00> 16179
01> 9988
00> 16131
01> 9841
00> 16130
01> 9831
00> 16139
01> 9889
00> 16137
01> 9924
00> 16116
01> 9858
00> 16074
01> 9715
00> 16069
01> 9701
00> 16090
01> 9782
00> 16098
01> 9829
00> 16068
01> 9749
00> 16029
01> 9610
00> 16018
01> 9592
00> 16034
01> 9661
00> 16053
01> 9711
00> 16029
01> 9644
00> 15994
01> 9507
00> 15995
01> 9483
00> 16014
01> 9564
00> 16014
01> 9625
00> 15991
01> 9568
00> 15959
01> 9445
00> 15951
01> 9428
00> 15970
01> 9497
00> 15985
01> 9554
00> 15964
01> 9484
00> 15925
01> 9348
00> 15919
01> 9344
00> 15934
01> 9410
00> 15949
01> 9463
00> 15934
01> 9414
00> 15898
01> 9283
00> 15893
01> 9261
00> 15911
01> 9329
00> 15926
01> 9390
00> 15906
01> 9329
00> 15869
01> 9195
00> 15859
01> 9181
00> 15882
01> 9254
00> 15892
01> 9320
00> 15872
01> 9276
00> 15837
01> 9154
00> 15837
01> 9153
00> 15860
01> 9229
00> 15877
01> 9296
00> 15861
01> 9244
00> 15822
01> 9108
00> 15813
01> 9079
00> 15834
01> 9150
00> 15854
01> 9230
00> 15838
01> 9196
00> 15803
01> 9067
00> 15798
01> 9047
00> 15821
01> 9127
00> 15846
01> 9199
00> 15827
01> 9151
00> 15794
01> 9028
00> 15793
01> 9023
00> 15813
01> 9106
00> 15826
01> 9166
00> 15813
01> 9121
00> 15783
01> 9008
00> 15783
01> 9004
00> 15799
01> 9079
00> 15826
01> 9155
00> 15816
01> 9126
00> 15786
01> 9004
00> 15779
01> 8986
00> 15798
01> 9067
00> 15826
01> 9146
00> 15816
01> 9113
00> 15781
01> 8989
00> 15780
01> 8988
00> 15806
01> 9087
00> 15828
01> 9166
00> 15815
01> 9127
00> 15780
01> 9003
00> 15784
01> 8993
00> 15809
01> 9072
00> 15828
01> 9151
00> 15814
01> 9126
00> 15784
01> 9006
00> 15779
01> 8994
00> 15799
01> 9066
00> 15818
01> 9127
00> 15809
01> 9104
00> 15783
01> 8994
00> 15780
01> 8979
00> 15801
01> 9054
00> 15825
01> 9136
00> 15813
01> 9111
00> 15779
01> 8996
00> 15775
01> 8979
00> 15796
01> 9058
00> 15819
01> 9133
00> 15804
01> 9098
00> 15777
01> 8982
00> 15776
01> 8968
00> 15793
01> 9038
00> 15814
01> 9115
00> 15803
01> 9091
00> 15776
01> 8989
00> 15775
01> 8974
00> 15786
01> 9038
00> 15813
01> 9106
00> 15811
01> 9083
00> 15785
01> 8981
00> 15785
01> 8968
00> 15805
01> 9039
00> 15824
01> 9109
00> 15815
01> 9086
00> 15778
01> 8969
00> 15772
01> 8954
00> 15788
01> 9024
00> 15815
01> 9104
00> 15811
01> 9090
00> 15776
01> 8975
00> 15774
01> 8953
00> 15791
01> 9018
00> 15810
01> 9093
00> 15801
01> 9084
00> 15769
01> 8968
00> 15764
01> 8946
00> 15781
01> 9011
00> 15805
01> 9088
00> 15798
01> 9074
00> 15770
01> 8955
00> 15767
01> 8939
00> 15780
01> 9013
00> 15809
01> 9093
00> 15806
01> 9077
00> 15769
01> 8958
00> 15759
01> 8929
00> 15785
01> 9001
00> 15808
01> 9089
00> 15804
01> 9084
00> 15775
01> 8965
00> 15766
01> 8938
00> 15783
01> 9004
00> 15807
01> 9083
00> 15801
01> 9081
00> 15769
01> 8970
00> 15770
01> 8951
00> 15792
01> 9027
00> 15806
01> 9086
00> 15791
01> 9061
00> 15758
01> 8942
00> 15744
01> 8916
00> 15773
01> 9006
00> 15798
01> 9082
00> 15796
01> 9071
00> 15760
01> 8959
00> 15753
01> 8931
00> 15766
01> 8995
00> 15786
01> 9074
00> 15792
01> 9069
00> 15758
01> 8948
00> 15752
01> 8914
00> 15775
01> 8986
00> 15799
01> 9059
00> 15796
01> 9054
00> 15759
01> 8937
00> 15752
01> 8901
00> 15777
01> 8976
00> 15804
01> 9067
00> 15802
01> 9069
00> 15764
01> 8946
00> 15754
01> 8911
00> 15768
01> 8977
00> 15796
01> 9061
00> 15795
01> 9054
00> 15764
01> 8938
00> 15760
01> 8904
00> 15779
01> 8988
00> 15802
01> 9077
00> 15796
01> 9066
00> 15759
01> 8947
00> 15750
01> 8909
00> 15778
01> 8990
00> 15799
01> 9074
00> 15794
01> 9066
00> 15758
01> 8943
00> 15749
01> 8907
00> 15774
01> 8977
00> 15814
01> 9069
00> 15805
01> 9074
00> 15766
01> 8956
00> 15754
01> 8925
00> 15769
01> 8996
00> 15790
01> 9068
00> 15787
01> 9057
00> 15749
01> 8942
00> 15746
01> 8922
00> 15769
01> 8971
00> 15798
01> 9061
00> 15801
01> 9074
00> 15769
01> 8983
00> 15767
01> 8929
00> 15785
01> 8993
00> 15806
01> 9079
00> 15811
01> 9084
00> 15782
01> 8976
00> 15774
01> 8938
00> 15801
01> 9013
00> 15821
01> 9096
00> 15819
01> 9097
00> 15789
01> 8969
00> 15772
01> 8924
00> 15793
01> 8997
00> 15818
01> 9098
00> 15809
01> 9104
00> 15786
01> 8978
00> 15774
01> 8939
00> 15793
01> 9005
00> 15807
01> 9071
00> 15813
01> 9083
00> 15784
01> 8964
00> 15774
01> 8914
00> 15794
01> 8994
00> 15814
01> 9073
00> 15811
01> 9076
00> 15771
01> 8969
00> 15763
01> 8914
00> 15781
01> 8987
00> 15801
01> 9065
00> 15798
01> 9070
00> 15759
01> 8944
00> 15744
01> 8897
00> 15761
01> 8966
00> 15784
01> 9059
00> 15794
01> 9084
00> 15768
01> 8984
00> 15752
01> 8931
00> 15768
01> 8991
00> 15793
01> 9075
00> 15790
01> 9093
00> 15759
01> 8978
00> 15748
01> 8925
00> 15764
01> 8987
00> 15787
01> 9065
00> 15791
01> 9074
00> 15751
01> 8963
00> 15742
01> 8909
00> 15763
01> 8984
00> 15791
01> 9083
00> 15793
01> 9093
00> 15758
01> 8976
00> 15752
01> 8917
00> 15769
01> 8988
00> 15789
01> 9084
00> 15793
01> 9090
00> 15759
01> 8972
00> 15745
01> 8922
00> 15766
01> 8988
00> 15786
01> 9074
00> 15786
01> 9090
00> 15759
01> 8978
00> 15736
01> 8909
00> 15753
01> 8959
00> 15778
01> 9044
00> 15782
01> 9076
00> 15755
01> 8983
00> 15738
01> 8933
00> 15766
01> 9002
00> 15795
01> 9066
00> 15799
01> 9079
00> 15771
01> 8979
00> 15760
01> 8930
00> 15776
01> 8974
00> 15801
01> 9073
00> 15809
01> 9096
00> 15775
01> 8988
00> 15760
01> 8931
00> 15775
01> 8997
00> 15799
01> 9087
00> 15813
01> 9109
00> 15779
01> 8994
00> 15763
01> 8944
00> 15776
01> 8987
00> 15801
01> 9064
00> 15799
01> 9083
00> 15763
01> 8984
00> 15754
01> 8917
00> 15765
01> 8974
00> 15786
01> 9053
00> 15788
01> 9063
00> 15759
01> 8960
00> 15741
01> 8901
00> 15748
01> 8970
00> 15773
01> 9052
00> 15778
01> 9077
00> 15752
01> 8978
00> 15743
01> 8914
00> 15754
01> 8976
00> 15774
01> 9045
00> 15779
01> 9064
00> 15753
01> 8963
00> 15731
01> 8898
00> 15745
01> 8946
00> 15768
01> 9023
00> 15778
01> 9053
00> 15746
01> 8951
00> 15728
01> 8894
00> 15741
01> 8966
00> 15773
01> 9046
00> 15784
01> 9053
00> 15753
01> 8955
00> 15724
01> 8884
00> 15739
01> 8939
00> 15764
01> 9029
00> 15778
01> 9063
00> 15754
01> 8966
00> 15739
01> 8895
00> 15753
01> 8947
00> 15773
01> 9023
00> 15784
01> 9063
00> 15767
01> 8970
00> 15745
01> 8903
00> 15755
01> 8949
00> 15781
01> 9043
00> 15786
01> 9068
00> 15754
01> 8967
00> 15740
01> 8900
00> 15756
01> 8964
00> 15778
01> 9049
00> 15783
01> 9080
00> 15753
01> 8978
00> 15739
01> 8913
00> 15748
01> 8956
00> 15773
01> 9039
00> 15782
01> 9071
00> 15757
01> 8971
00> 15733
01> 8901
00> 15749
01> 8958
00> 15775
01> 9041
00> 15781
01> 9074
00> 15756
01> 8971
00> 15739
01> 8897
00> 15751
01> 8943
00> 15774
01> 9021
00> 15786
01> 9052
00> 15758
01> 8969
00> 15737
01> 8897
00> 15753
01> 8947
00> 15769
01> 9021
00> 15777
01> 9062
00> 15757
01> 8972
00> 15742
01> 8891
00> 15748
01> 8946
00> 15768
01> 9026
00> 15785
01> 9061
00> 15758
01> 8970
00> 15741
01> 8902
00> 15754
01> 8961
00> 15782
01> 9052
00> 15791
01> 9088
00> 15763
01> 8997
00> 15744
01> 8907
00> 15754
01> 8953
00> 15781
01> 9043
00> 15797
01> 9093
00> 15766
01> 8996
00> 15744
01> 8908
00> 15758
01> 8966
00> 15784
01> 9038
00> 15788
01> 9066
00> 15759
01> 8971
00> 15744
01> 8896
00> 15757
01> 8949
00> 15782
01> 9036
00> 15787
01> 9074
00> 15757
01> 8981
00> 15739
01> 8896
00> 15753
01> 8943
00> 15776
01> 9025
00> 15788
01> 9056
00> 15764
01> 8992
00> 15743
01> 8901
00> 15754
01> 8938
00> 15782
01> 9039
00> 15796
01> 9081
00> 15763
01> 8986
00> 15744
01> 8908
00> 15755
01> 8954
00> 15783
01> 9036
00> 15804
01> 9079
00> 15778
01> 8991
00> 15745
01> 8903
00> 15756
01> 8941
00> 15785
01> 9026
00> 15794
01> 9068
00> 15773
01> 9001
00> 15752
01> 8914
00> 15758
01> 8957
00> 15788
01> 9031
00> 15797
01> 9070
00> 15775
01> 8989
00> 15754
01> 8906
00> 15769
01> 8956
00> 15792
01> 9040
00> 15798
01> 9086
00> 15776
01> 9004
00> 15748
01> 8924
00> 15759
01> 8951
00> 15783
01> 9034
00> 15794
01> 9084
00> 15768
01> 9006
00> 15736
01> 8914
00> 15753
01> 8954
00> 15781
01> 9038
00> 15797
01> 9078
00> 15776
01> 8994
00> 15748
01> 8906
00> 15759
01> 8953
00> 15787
01> 9041
00> 15811
01> 9106
00> 15791
01> 9033
00> 15766
01> 8940
00> 15770
01> 8962
00> 15785
01> 9039
00> 15798
01> 9078
00> 15778
01> 9004
00> 15753
01> 8916
00> 15765
01> 8967
00> 15786
01> 9055
00> 15806
01> 9111
00> 15781
01> 9031
00> 15759
01> 8925
00> 15766
01> 8956
00> 15788
01> 9029
00> 15796
01> 9082
00> 15778
01> 9015
00> 15763
01> 8929
00> 15771
01> 8961
00> 15791
01> 9048
00> 15805
01> 9096
00> 15770
01> 9001
00> 15746
01> 8914
00> 15759
01> 8946
00> 15784
01> 9040
00> 15803
01> 9082
00> 15778
01> 8999
00> 15743
01> 8899
00> 15757
01> 8928
00> 15784
01> 9018
00> 15798
01> 9077
00> 15771
01> 8994
00> 15753
01> 8897
00> 15760
01> 8934
00> 15782
01> 9026
00> 15800
01> 9091
00> 15779
01> 9020
00> 15750
01> 8915
00> 15756
01> 8931
00> 15785
01> 9013
00> 15803
01> 9076
00> 15783
01> 9023
00> 15752
01> 8933
00> 15756
01> 8941
00> 15777
01> 9014
00> 15795
01> 9058
00> 15779
01> 8999
00> 15758
01> 8913
00> 15759
01> 8938
00> 15777
01> 9013
00> 15798
01> 9071
00> 15769
01> 8993
00> 15744
01> 8890
00> 15754
01> 8921
00> 15783
01> 9009
00> 15799
01> 9069
00> 15776
01> 9001
00> 15748
01> 8903
00> 15760
01> 8934
00> 15786
01> 9016
00> 15801
01> 9071
00> 15776
01> 9008
00> 15750
01> 8890
00> 15754
01> 8909
00> 15777
01> 8994
00> 15793
01> 9055
00> 15776
01> 8996
00> 15748
01> 8894
00> 15753
01> 8923
00> 15779
01> 8996
00> 15796
01> 9051
00> 15774
01> 8990
00> 15750
01> 8889
00> 15752
01> 8916
00> 15780
01> 8998
00> 15795
01> 9058
00> 15778
01> 8991
00> 15752
01> 8890
00> 15757
01> 8908
00> 15780
01> 8988
00> 15804
01> 9060
00> 15786
01> 9012
00> 15758
01> 8904
00> 15767
01> 8898
00> 15791
01> 8984
00> 15810
01> 9052
00> 15789
01> 8998
00> 15758
01> 8898
00> 15762
01> 8913
00> 15791
01> 8993
00> 15810
01> 9055
00> 15793
01> 8989
00> 15768
01> 8895
00> 15776
01> 8925
00> 15804
01> 9009
00> 15820
01> 9062
00> 15798
01> 8993
00> 15769
01> 8890
00> 15771
01> 8908
00> 15791
01> 8990
00> 15814
01> 9057
00> 15796
01> 8996
00> 15765
01> 8891
00> 15774
01> 8913
00> 15796
01> 8999
00> 15813
01> 9055
00> 15793
01> 8993
00> 15761
01> 8898
00> 15768
01> 8925
00> 15789
01> 9001
00> 15800
01> 9052
00> 15781
01> 8986
00> 15760
01> 8883
00> 15769
01> 8905
00> 15792
01> 8997
00> 15808
01> 9054
00> 15789
01> 8999
00> 15761
01> 8894
00> 15761
01> 8906
00> 15798
01> 8994
00> 15814
01> 9052
00> 15792
01> 8998
00> 15759
01> 8896
00> 15763
01> 8909
00> 15783
01> 8989
00> 15798
01> 9040
00> 15786
01> 8984
00> 15754
01> 8879
00> 15756
01> 8898
00> 15779
01> 8979
00> 15798
01> 9038
00> 15784
01> 8987
00> 15753
01> 8880
00> 15753
01> 8894
00> 15777
01> 8970
00> 15797
01> 9024
00> 15785
01> 8978
00> 15754
01> 8885
00> 15747
01> 8893
00> 15769
01> 8963
00> 15786
01> 9012
00> 15777
01> 8971
00> 15753
01> 8879
00> 15754
01> 8890
00> 15776
01> 8969
00> 15798
01> 9026
00> 15778
01> 8974
00> 15750
01> 8881
00> 15753
01> 8888
00> 15769
01> 8958
00> 15786
01> 9007
00> 15774
01> 8961
00> 15753
01> 8873
00> 15750
01> 8876
00> 15764
01> 8941
00> 15779
01> 9000
00> 15764
01> 8960
00> 15735
01> 8866
00> 15741
01> 8876
00> 15758
01> 8939
00> 15771
01> 8986
00> 15761
01> 8948
00> 15737
01> 8861
00> 15741
01> 8878
00> 15756
01> 8946
00> 15770
01> 8993
00> 15760
01> 8947
00> 15734
01> 8859
00> 15736
01> 8864
00> 15751
01> 8924
00> 15762
01> 8976
00> 15748
01> 8944
00> 15726
01> 8858
00> 15736
01> 8865
00> 15752
01> 8926
00> 15760
01> 8968
00> 15749
01> 8946
00> 15732
01> 8869
00> 15736
01> 8876
00> 15756
01> 8937
00> 15769
01> 8971
00> 15756
01> 8941
00> 15734
01> 8864
00> 15744
01> 8883
00> 15766
01> 8948
00> 15784
01> 8999
00> 15775
01> 8974
00> 15751
01> 8895
00> 15744
01> 8901
00> 15764
01> 8965
00> 15781
01> 9011
00> 15764
01> 8974
00> 15744
01> 8896
00> 15751
01> 8893
00> 15770
01> 8948
00> 15779
01> 8990
00> 15769
01> 8958
00> 15746
01> 8886
00> 15749
01> 8898
00> 15768
01> 8956
00> 15779
01> 8994
00> 15774
01> 8972
00> 15754
01> 8898
00> 15756
01> 8903
00> 15766
01> 8959
00> 15780
01> 9001
00> 15774
01> 8970
00> 15757
01> 8896
00> 15754
01> 8898
00> 15764
01> 8947
00> 15781
01> 8993
00> 15771
01> 8976
00> 15749
01> 8906
00> 15756
01> 8912
00> 15772
01> 8964
00> 15782
01> 8999
00> 15774
01> 8971
00> 15760
01> 8906
00> 15760
01> 8913
00> 15777
01> 8962
00> 15792
01> 9009
00> 15784
01> 8989
00> 15765
01> 8911
00> 15768
01> 8908
00> 15784
01> 8966
00> 15796
01> 9014
00> 15791
01> 8995
00> 15773
01> 8916
00> 15773
01> 8906
00> 15786
01> 8956
00> 15805
01> 9004
00> 15796
01> 8983
00> 15782
01> 8911
00> 15781
01> 8911
00> 15786
01> 8961
00> 15797
01> 9004
00> 15798
01> 8981
00> 15781
01> 8906
00> 15776
01> 8908
00> 15794
01> 8965
00> 15810
01> 9019
00> 15809
01> 8996
00> 15786
01> 8926
00> 15783
01> 8923
00> 15794
01> 8977
00> 15813
01> 9052
00> 15811
01> 9024
00> 15795
01> 8950
00> 15793
01> 8933
00> 15803
01> 8991
00> 15813
01> 9036
00> 15799
01> 9003
00> 15768
01> 8921
00> 15794
01> 8934
00> 15816
01> 8988
00> 15823
01> 9045
00> 15784
01> 9030
00> 15799
01> 8944
00> 15796
01> 8941
00> 15812
01> 8983
00> 15818
01> 9029
00> 15806
01> 9018
00> 15786
01> 8936
00> 15779
01> 8923
00> 15792
01> 8971
00> 15799
01> 9011
00> 15798
01> 8996
00> 15778
01> 8927
00> 15774
01> 8929
00> 15781
01> 8983
00> 15797
01> 9013
00> 15797
01> 8988
00> 15776
01> 8924
00> 15784
01> 8933
00> 15802
01> 8991
00> 15813
01> 9016
00> 15797
01> 8988
00> 15777
01> 8919
00> 15767
01> 8916
00> 15783
01> 8982
00> 15805
01> 9041
00> 15802
01> 9001
00> 15777
01> 8928
00> 15784
01> 8914
00> 15792
01> 8973
00> 15803
01> 9023
00> 15795
01> 9003
00> 15773
01> 8922
00> 15773
01> 8924
00> 15794
01> 8975
00> 15809
01> 9018
00> 15799
01> 9006
00> 15780
01> 8937
00> 15781
01> 8923
00> 15791
01> 8981
00> 15806
01> 9029
00> 15797
01> 9011
00> 15779
01> 8937
00> 15779
01> 8941
00> 15786
01> 8984
00> 15798
01> 9016
00> 15793
01> 9008
00> 15776
01> 8934
00> 15783
01> 8928
00> 15799
01> 8986
00> 15808
01> 9029
00> 15803
01> 9007
00> 15783
01> 8947
00> 15777
01> 8925
00> 15794
01> 8963
00> 15811
01> 9006
00> 15805
01> 9005
00> 15776
01> 8944
00> 15782
01> 8935
00> 15796
01> 8979
00> 15798
01> 9023
00> 15800
01> 9002
00> 15788
01> 8931
00> 15783
01> 8931
00> 15798
01> 8989
00> 15813
01> 9032
00> 15812
01> 9013
00> 15789
01> 8938
00> 15791
01> 8934
00> 15804
01> 8996
00> 15819
01> 9031
00> 15821
01> 9028
00> 15799
01> 8958
00> 15791
01> 8944
00> 15809
01> 8993
00> 15821
01> 9031
00> 15824
01> 9016
00> 15807
01> 8960
00> 15801
01> 8957
00> 15806
01> 8987
00> 15813
01> 9045
00> 15819
01> 9038
00> 15804
01> 8956
00> 15799
01> 8943
00> 15818
01> 8996
00> 15834
01> 9048
00> 15825
01> 9045
00> 15799
01> 8969
00> 15800
01> 8951
00> 15824
01> 8998
00> 15839
01> 9047
00> 15831
01> 9043
00> 15809
01> 8959
00> 15808
01> 8922
00> 15826
01> 8976
00> 15843
01> 9039
00> 15842
01> 9049
00> 15814
01> 8978
00> 15813
01> 8953
00> 15820
01> 8998
00> 15834
01> 9038
00> 15839
01> 9033
00> 15813
01> 8964
00> 15803
01> 8951
00> 15817
01> 8996
00> 15835
01> 9047
00> 15824
01> 9056
00> 15811
01> 8995
00> 15806
01> 8959
00> 15816
01> 9006
00> 15827
01> 9048
00> 15823
01> 9044
00> 15805
01> 8973
00> 15803
01> 8943
00> 15813
01> 8992
00> 15818
01> 9034
00> 15823
01> 9031
00> 15804
01> 8969
00> 15799
01> 8952
00> 15805
01> 8992
00> 15819
01> 9033
00> 15818
01> 9040
00> 15798
01> 8970
00> 15794
01> 8946
00> 15800
01> 8988
00> 15813
01> 9032
00> 15811
01> 9026
00> 15782
01> 8955
00> 15788
01> 8940
00> 15800
01> 8991
00> 15810
01> 9036
00> 15814
01> 9031
00> 15792
01> 8976
00> 15788
01> 8961
00> 15806
01> 9008
00> 15806
01> 9051
00> 15803
01> 9045
00> 15790
01> 8991
00> 15776
01> 8948
00> 15779
01> 8991
00> 15794
01> 9046
00> 15798
01> 9052
00> 15772
01> 8978
00> 15769
01> 8944
00> 15781
01> 8983
00> 15796
01> 9029
00> 15796
01> 9041
00> 15779
01> 8970
00> 15780
01> 8943
00> 15784
01> 8974
00> 15795
01> 9013
00> 15791
01> 9033
00> 15769
01> 8951
00> 15771
01> 8932
00> 15781
01> 8983
00> 15790
01> 9039
00> 15797
01> 9031
00> 15778
01> 8959
00> 15773
01> 8921
00> 15779
01> 8957
00> 15789
01> 9001
00> 15789
01> 9019
00> 15778
01> 8947
00> 15772
01> 8909
00> 15778
01> 8952
00> 15778
01> 9006
00> 15783
01> 9002
00> 15759
01> 8921
00> 15746
01> 8883
00> 15760
01> 8933
00> 15778
01> 8988
00> 15776
01> 9004
00> 15761
01> 8945
00> 15760
01> 8919
00> 15769
01> 8960
00> 15777
01> 8999
00> 15777
01> 8999
00> 15758
01> 8933
00> 15743
01> 8902
00> 15754
01> 8932
00> 15771
01> 8993
00> 15778
01> 9011
00> 15760
01> 8946
00> 15749
01> 8903
00> 15764
01> 8939
00> 15776
01> 8981
00> 15773
01> 8994
00> 15756
01> 8933
00> 15749
01> 8903
00> 15766
01> 8950
00> 15780
01> 9006
00> 15786
01> 9010
00> 15764
01> 8934
00> 15749
01> 8895
00> 15764
01> 8941
00> 15785
01> 8999
00> 15787
01> 9021
00> 15768
01> 8958
00> 15763
01> 8932
00> 15774
01> 8961
00> 15791
01> 9006
00> 15794
01> 9019
00> 15780
01> 8958
00> 15768
01> 8916
00> 15781
01> 8958
00> 15791
01> 8995
00> 15778
01> 8998
00> 15768
01> 8942
00> 15771
01> 8913
00> 15775
01> 8951
00> 15790
01> 9006
00> 15786
01> 9015
00> 15766
01> 8956
00> 15765
01> 8920
00> 15773
01> 8953
00> 15785
01> 8991
00> 15780
01> 9009
00> 15762
01> 8941
00> 15759
01> 8914
00> 15774
01> 8963
00> 15789
01> 9016
00> 15789
01> 9029
00> 15771
01> 8965
00> 15756
01> 8910
00> 15769
01> 8946
00> 15784
01> 8991
00> 15784
01> 8996
00> 15762
01> 8934
00> 15755
01> 8896
00> 15768
01> 8944
00> 15781
01> 9000
00> 15790
01> 9021
00> 15775
01> 8949
00> 15758
01> 8910
00> 15772
01> 8954
00> 15786
01> 9002
00> 15783
01> 9009
00> 15772
01> 8949
00> 15771
01> 8916
00> 15776
01> 8954
00> 15783
01> 9002
00> 15794
01> 9031
00> 15777
01> 8964
00> 15768
01> 8913
00> 15775
01> 8949
00> 15788
01> 9001
00> 15793
01> 9026
00> 15786
01> 8983
00> 15778
01> 8929
00> 15779
01> 8959
00> 15796
01> 9008
00> 15803
01> 9020

01> 8966
00> 15771
01> 8913
00> 15786
01> 8953
00> 15805
01> 9008
00> 15803
01> 9023
00> 15771
01> 8946
00> 15759
01> 8897
00> 15778
01> 8940
00> 15794
01> 8996
00> 15794
01> 9013
00> 15780
01> 8951
00> 15768
01> 8898
00> 15774
01> 8934
00> 15793
01> 8994
00> 15798
01> 9014
00> 15779
01> 8959
00> 15771
01> 8914
00> 15770
01> 8938
00> 15781
01> 8982
00> 15797
01> 9001
00> 15787
01> 8952
00> 15768
01> 8915
00> 15779
01> 8951
00> 15793
01> 8999
00> 15791
01> 9013
00> 15768
01> 8943
00> 15758
01> 8911
00> 15766
01> 8945
00> 15784
01> 8994
00> 15785
01> 8998
00> 15766
01> 8937
00> 15763
01> 8910
00> 15780
01> 8954
00> 15794
01> 8998
00> 15804
01> 9013
00> 15794
01> 8971
00> 15791
01> 8935
00> 15804
01> 8971
00> 15808
01> 9009
00> 15814
01> 9024
00> 15801
01> 8973
00> 15784
01> 8918
00> 15810
01> 8965
00> 15824
01> 9024
00> 15823
01> 9038
00> 15811
01> 8985
00> 15807
01> 8945
00> 15822
01> 8979
00> 15836
01> 9043
00> 15845
01> 9067
00> 15826
01> 8999
00> 15809
01> 8948
00> 15809
01> 8982
00> 15821
01> 9018
00> 15844
01> 9043
00> 15821
01> 9013
00> 15804
01> 8955
00> 15825
01> 8968
00> 15831
01> 9024
00> 15833
01> 9033
00> 15817
01> 8974
00> 15814
01> 8932
00> 15825
01> 8968
00> 15836
01> 9031
00> 15841
01> 9063
00> 15819
01> 9001
00> 15809
01> 8929
00> 15819
01> 8962
00> 15826
01> 9018
00> 15846
01> 9048
00> 15833
01> 9002
00> 15819
01> 8933
00> 15829
01> 8960
00> 15846
01> 9017
00> 15853
01> 9056
00> 15836
01> 8999
00> 15818
01> 8939
00> 15821
01> 8956
00> 15835
01> 9043
00> 15849
01> 9066
00> 15840
01> 8988
00> 15831
01> 8948
00> 15839
01> 8974
00> 15844
01> 9033
00> 15859
01> 9072
00> 15842
01> 9011
00> 15821
01> 8947
00> 15838
01> 8979
00> 15848
01> 9021
00> 15853
01> 9048
00> 15836
01> 9002
00> 15827
01> 8943
00> 15831
01> 8983
00> 15846
01> 9038
00> 15854
01> 9053
00> 15837
01> 8986
00> 15818
01> 8927
00> 15824
01> 8953
00> 15841
01> 9021
00> 15846
01> 9061
00> 15835
01> 9012
00> 15819
01> 8949
00> 15824
01> 8968
00> 15830
01> 9018
00> 15834
01> 9061
00> 15821
01> 9019
00> 15810
01> 8947
00> 15821
01> 8960
00> 15823
01> 9004
00> 15833
01> 9038
00> 15817
01> 9003
00> 15804
01> 8948
00> 15806
01> 8969
00> 15828
01> 9029
00> 15841
01> 9056
00> 15824
01> 9003
00> 15799
01> 8942
00> 15808
01> 8961
00> 15819
01> 9016
00> 15824
01> 9045
00> 15808
01> 8999
00> 15795
01> 8928
00> 15798
01> 8951
00> 15813
01> 8994
00> 15814
01> 9024
00> 15803
01> 8993
00> 15786
01> 8911
00> 15801
01> 8936
00> 15816
01> 8994
00> 15828
01> 9034
00> 15814
01> 9004
00> 15796
01> 8941
00> 15792
01> 8951
00> 15807
01> 9018
00> 15824
01> 9028
00> 15803
01> 8979
00> 15777
01> 8951
00> 15791
01> 8950
00> 15808
01> 8967
00> 15814
01> 9001
00> 15793
01> 8962
00> 15779
01> 8903
00> 15779
01> 8919
00> 15792
01> 8989
00> 15793
01> 9018
00> 15781
01> 8969
00> 15765
01> 8906
00> 15768
01> 8930
00> 15776
01> 8974
00> 15784
01> 9016
00> 15784
01> 8980
00> 15773
01> 8910
00> 15774
01> 8918
00> 15783
01> 8965
00> 15781
01> 9003
00> 15771
01> 8974
00> 15755
01> 8904
00> 15765
01> 8931
00> 15779
01> 8979
00> 15782
01> 9024
00> 15779
01> 8967
00> 15749
01> 8896
00> 15766
01> 8911
00> 15781
01> 8974
00> 15787
01> 9001
00> 15778
01> 8969
00> 15765
01> 8905
00> 15771
01> 8926
00> 15772
01> 8971
00> 15782
01> 9000
00> 15759
01> 8954
00> 15739
01> 8893
00> 15746
01> 8898
00> 15756
01> 8956
00> 15775
01> 8987
00> 15756
01> 8957
00> 15742
01> 8898
00> 15752
01> 8909
00> 15760
01> 8944
00> 15769
01> 8983
00> 15744
01> 8946
00> 15734
01> 8883
00> 15749
01> 8896
00> 15756
01> 8956
00> 15756
01> 8993
00> 15754
01> 8959
00> 15742
01> 8902
00> 15738
01> 8907
00> 15751
01> 8968
00> 15759
01> 8994
00> 15753
01> 8958
00> 15729
01> 8898
00> 15736
01> 8906
00> 15753
01> 8958
00> 15762
01> 8988
00> 15751
01> 8959
00> 15733
01> 8904
00> 15741
01> 8914
00> 15753
01> 8966
00> 15754
01> 8999
00> 15738
01> 8958
00> 15723
01> 8874
00> 15722
01> 8876
00> 15742
01> 8938
00> 15756
01> 8986
00> 15746
01> 8959
00> 15727
01> 8901
00> 15726
01> 8915
00> 15744
01> 8959
00> 15747
01> 8996
00> 15733
01> 8960
00> 15716
01> 8886
00> 15726
01> 8901
00> 15738
01> 8940
00> 15747
01> 8970
00> 15726
01> 8936
00> 15708
01> 8881
00> 15719
01> 8906
00> 15738
01> 8961
00> 15743
01> 8986
00> 15738
01> 8952
00> 15723
01> 8888
00> 15725
01> 8904
00> 15736
01> 8950
00> 15746
01> 8986
00> 15732
01> 8958
00> 15729
01> 8901
00> 15726
01> 8896
00> 15745
01> 8950
00> 15748
01> 8984
00> 15744
01> 8958
00> 15717
01> 8892
00> 15723
01> 8898
00> 15748
01> 8958
00> 15762
01> 8996
00> 15759
01> 8968
00> 15733
01> 8908
00> 15733
01> 8909
00> 15747
01> 8956
00> 15756
01> 8992
00> 15740
01> 8963
00> 15719
01> 8897
00> 15721
01> 8915
00> 15739
01> 8973
00> 15755
01> 9002
00> 15740
01> 8969
00> 15731
01> 8899
00> 15729
01> 8903
00> 15735
01> 8953
00> 15761
01> 8989
00> 15742
01> 8966
00> 15723
01> 8900
00> 15729
01> 8898
00> 15743
01> 8941
00> 15754
01> 8991
00> 15749
01> 8976
00> 15738
01> 8906
00> 15736
01> 8903
00> 15747
01> 8941
00> 15751
01> 8989
00> 15744
01> 8962
00> 15726
01> 8900
00> 15727
01> 8904
00> 15746
01> 8956
00> 15756
01> 8996
00> 15743
01> 8962
00> 15724
01> 8878
00> 15725
01> 8891
00> 15742
01> 8957
00> 15767
01> 9016
00> 15759
01> 8994
00> 15745
01> 8918
00> 15741
01> 8909
00> 15752
01> 8950
00> 15758
01> 8993
00> 15751
01> 8978
00> 15730
01> 8901
00> 15733
01> 8897
00> 15746
01> 8948
00> 15769
01> 8997
00> 15766
01> 8983
00> 15731
01> 8904
00> 15738
01> 8911
00> 15750
01> 8962
00> 15757
01> 9000
00> 15749
01> 8977
00> 15731
01> 8904
00> 15733
01> 8904
00> 15751
01> 8957
00> 15757
01> 8995
00> 15753
01> 8985
00> 15734
01> 8918
00> 15741
01> 8910
00> 15752
01> 8967
00> 15760
01> 9011
00> 15757
01> 8989
00> 15748
01> 8919
00> 15747
01> 8920
00> 15762
01> 8973
00> 15783
01> 9018
00> 15768
01> 8988
00> 15750
01> 8918
00> 15748
01> 8909
00> 15759
01> 8954
00> 15778
01> 9003
00> 15775
01> 8994
00> 15752
01> 8924
00> 15749
01> 8918
00> 15759
01> 8976
00> 15775
01> 9028
00> 15769
01> 9003
00> 15743
01> 8925
00> 15742
01> 8914
00> 15753
01> 8964
00> 15763
01> 9019
00> 15761
01> 9007
00> 15737
01> 8934
00> 15731
01> 8918
00> 15742
01> 8961
00> 15738
01> 8987
00> 15728
01> 8981
00> 15714
01> 8908
00> 15728
01> 8918
00> 15748
01> 8986
00> 15749
01> 9005
00> 15739
01> 8979
00> 15722
01> 8917
00> 15732
01> 8919
00> 15742
01> 8972
00> 15768
01> 9000
00> 15764
01> 8991
00> 15732
01> 8922
00> 15726
01> 8911
00> 15739
01> 8948
00> 15753
01> 8996
00> 15738
01> 8983
00> 15714
01> 8921
00> 15735
01> 8929
00> 15758
01> 8973
00> 15756
01> 8996
00> 15748
01> 8981
00> 15724
01> 8904
00> 15721
01> 8886
00> 15722
01> 8942
00> 15726
01> 8981
00> 15729
01> 8988
00> 15720
01> 8922
00> 15718
01> 8904
00> 15724
01> 8953
00> 15726
01> 8982
00> 15723
01> 8979
00> 15731
01> 8929
00> 15728
01> 8914
00> 15747
01> 8964
00> 15758
01> 9008
00> 15748
01> 9000
00> 15721
01> 8933
00> 15726
01> 8898
00> 15725
01> 8948
00> 15716
01> 8973
00> 15724
01> 8975
00> 15734
01> 8945
00> 15749
01> 8953
00> 15759
01> 9003
00> 15769
01> 9034
00> 15754
01> 9026
00> 15727
01> 8938
00> 15728
01> 8911
00> 15766
01> 8969
00> 15789
01> 9040
00> 15776
01> 9036
00> 15768
01> 8967
00> 15767
01> 8954
00> 15785
01> 9001
00> 15795
01> 9036
00> 15778
01> 9031
00> 15759
01> 8968
00> 15781
01> 8960
00> 15804
01> 9021
00> 15803
01> 9052
00> 15786
01> 9016
00> 15774
01> 8964
00> 15814
01> 9005
00> 15818
01> 9046
00> 15793
01> 9046
00> 15771
01> 9021
00> 15779
01> 8984
00> 15788
01> 8990
00> 15804
01> 9012
00> 15808
01> 9056
00> 15793
01> 9042
00> 15779
01> 8993
00> 15782
01> 8963
00> 15779
01> 8991
00> 15788
01> 9036
00> 15789
01> 9038
00> 15777
01> 8995
00> 15788
01> 8982
00> 15783
01> 9006
00> 15811
01> 9054
00> 15821
01> 9069
00> 15806
01> 9001
00> 15797
01> 8966
00> 15799
01> 9005
00> 15795
01> 9031
00> 15788
01> 9016
00> 15786
01> 8983
00> 15796
01> 8985
00> 15808
01> 9034
00> 15803
01> 9050
00> 15787
01> 9029
00> 15784
01> 9000
00> 15790
01> 8994
00> 15821
01> 9042
00> 15819
01> 9076
00> 15802
01> 9053
00> 15812
01> 9006
00> 15803
01> 8986
00> 15809
01> 9024
00> 15846
01> 9110
00> 15834
01> 9092
00> 15791
01> 9005
00> 15774
01> 8968
00> 15813
01> 9026
00> 15849
01> 9107
00> 15823
01> 9073
00> 15810
01> 9013
00> 15807
01> 8995
00> 15796
01> 9026
00> 15827
01> 9084
00> 15843
01> 9091
00> 15829
01> 9017
00> 15809
01> 8989
00> 15816
01> 9031
00> 15819
01> 9063
00> 15827
01> 9088
00> 15814
01> 9068
00> 15823
01> 8999
00> 15825
01> 9023
00> 15840
01> 9088
00> 15826
01> 9083
00> 15824
01> 9009
00> 15826
01> 8996
00> 15828
01> 9043
00> 15826
01> 9096
00> 15826
01> 9078
00> 15818
01> 9003
00> 15823
01> 8989
00> 15832
01> 9036
00> 15833
01> 9098
00> 15842
01> 9106
00> 15833
01> 9041
00> 15813
01> 9019
00> 15819
01> 9048
00> 15836
01> 9086
00> 15848
01> 9104
00> 15837
01> 9054
00> 15824
01> 9019
00> 15826
01> 9056
00> 15841
01> 9086
00> 15846
01> 9082
00> 15822
01> 9026
00> 15829
01> 9016
00> 15841
01> 9056
00> 15851
01> 9109
00> 15844
01> 9111
00> 15830
01> 9053
00> 15828
01> 9018
00> 15832
01> 9046
00> 15849
01> 9083
00> 15843
01> 9084
00> 15818
01> 9029
00> 15808
01> 9020
00> 15827
01> 9051
00> 15849
01> 9101
00> 15842
01> 9090
00> 15810
01> 9027
00> 15805
01> 9009
00> 15823
01> 9034
00> 15831
01> 9079
00> 15820
01> 9086
00> 15809
01> 9015
00> 15791
01> 8975
00> 15802
01> 9014
00> 15822
01> 9071
00> 15826
01> 9079
00> 15799
01> 9004
00> 15786
01> 8963
00> 15806
01> 9013
00> 15826
01> 9058
00> 15818
01> 9079
00> 15794
01> 9033
00> 15796
01> 8976
00> 15804
01> 8994
00> 15814
01> 9047
00> 15821
01> 9064
00> 15811
01> 9013
00> 15806
01> 8979
00> 15806
01> 9020
00> 15819
01> 9073
00> 15824
01> 9086
00> 15800
01> 9027
00> 15789
01> 8994
00> 15794
01> 9038
00> 15807
01> 9066
00> 15809
01> 9075
00> 15796
01> 9021
00> 15777
01> 8980
00> 15782
01> 9006
00> 15801
01> 9063
00> 15803
01> 9079
00> 15777
01> 9008
00> 15769
01> 8988
00> 15789
01> 9011
00> 15806
01> 9063
00> 15803
01> 9076
00> 15778
01> 9010
00> 15771
01> 8964
00> 15785
01> 9006
00> 15801
01> 9062
00> 15803
01> 9081
00> 15797
01> 9033
00> 15791
01> 9004
00> 15786
01> 9026
00> 15803
01> 9076
00> 15804
01> 9097
00> 15793
01> 9037
00> 15788
01> 8984
00> 15790
01> 9026
00> 15796
01> 9079
00> 15798
01> 9084
00> 15786
01> 9016
00> 15776
01> 8981
00> 15783
01> 9018
00> 15803
01> 9071
00> 15801
01> 9081
00> 15788
01> 9022
00> 15783
01> 8968
00> 15786
01> 9010
00> 15804
01> 9070
00> 15813
01> 9097
00> 15796
01> 9040
00> 15783
01> 8990
00> 15793
01> 9008
00> 15814
01> 9067
00> 15811
01> 9081
00> 15788
01> 9018
00> 15786
01> 8978
00> 15791
01> 9019
00> 15805
01> 9075
00> 15811
01> 9088
00> 15794
01> 9024
00> 15779
01> 8981
00> 15794
01> 9008
00> 15809
01> 9062
00> 15815
01> 9091
00> 15804
01> 9031
00> 15791
01> 8979
00> 15798
01> 9014
00> 15814
01> 9064
00> 15816
01> 9086
00> 15797
01> 9028
00> 15788
01> 8985
00> 15802
01> 9033
00> 15816
01> 9078
00> 15815
01> 9086
00> 15791
01> 9029
00> 15778
01> 8985
00> 15789
01> 9015
00> 15800
01> 9057
00> 15813
01> 9079
00> 15803
01> 9038
00> 15791
01> 8995
00> 15799
01> 9035
00> 15813
01> 9086
00> 15820
01> 9102
00> 15796
01> 9038
00> 15785
01> 8986
00> 15793
01> 9013
00> 15813
01> 9071
00> 15818
01> 9100
00> 15799
01> 9050
00> 15786
01> 9008
00> 15795
01> 9040
00> 15806
01> 9092
00> 15811
01> 9110
00> 15797
01> 9051
00> 15786
01> 8996
00> 15796
01> 9026
00> 15808
01> 9076
00> 15805
01> 9095
00> 15794
01> 9041
00> 15780
01> 8990
00> 15784
01> 9021
00> 15799
01> 9073
00> 15803
01> 9087
00> 15790
01> 9034
00> 15780
01> 8988
00> 15795
01> 9018
00> 15811
01> 9074
00> 15817
01> 9090
00> 15793
01> 9026
00> 15779
01> 8971
00> 15790
01> 9004
00> 15807
01> 9069
00> 15814
01> 9098
00> 15801
01> 9051
00> 15793
01> 9004
00> 15793
01> 9026
00> 15806
01> 9070
00> 15813
01> 9091
00> 15793
01> 9035
00> 15783
01> 8990
00> 15790
01> 9022
00> 15808
01> 9066
00> 15811
01> 9089
00> 15789
01> 9031
00> 15771
01> 8970
00> 15774
01> 8994
00> 15783
01> 9048
00> 15788
01> 9073
00> 15774
01> 9025
00> 15764
01> 8973
00> 15771
01> 8998
00> 15786
01> 9049
00> 15801
01> 9081
00> 15777
01> 9022
00> 15758
01> 8961
00> 15770
01> 8991
00> 15789
01> 9049
00> 15794
01> 9077
00> 15777
01> 9028
00> 15764
01> 8978
00> 15768
01> 9003
00> 15784
01> 9049
00> 15794
01> 9082
00> 15778
01> 9028
00> 15767
01> 8968
00> 15772
01> 8989
00> 15782
01> 9043
00> 15790
01> 9076
00> 15773
01> 9033
00> 15761
01> 8979
00> 15770
01> 8995
00> 15786
01> 9034
00> 15790
01> 9063
00> 15768
01> 9025
00> 15758
01> 8971
00> 15775
01> 9002
00> 15790
01> 9062
00> 15796
01> 9084
00> 15788
01> 9043
00> 15778
01> 8984
00> 15791
01> 9014
00> 15808
01> 9073
00> 15809
01> 9113
00> 15819
01> 9108
00> 15809
01> 9073
00> 15821
01> 9117
00> 15827
01> 9179
00> 15837
01> 9233
00> 15829
01> 9222
00> 15829
01> 9213
00> 15856
01> 9290
00> 15894
01> 9412
00> 15928
01> 9514
00> 15946
01> 9544
00> 15966
01> 9557
00> 15992
01> 9639
00> 16022
01> 9736
00> 16044
01> 9795
00> 16047
01> 9771
00> 16039
01> 9735
00> 16049
01> 9774
00> 16063
01> 9827
00> 16076
01> 9847
00> 16062
01> 9791
00> 16043
01> 9722
00> 16039
01> 9733
00> 16048
01> 9766
00> 16050
01> 9781
00> 16028
01> 9724
00> 16009
01> 9653
00> 16012
01> 9659
00> 16016
01> 9697
00> 16023
01> 9713
00> 16000
01> 9648
00> 15981
01> 9566
00> 15982
01> 9568
00> 15983
01> 9608
00> 15981
01> 9618
00> 15962
01> 9573
00> 15942
01> 9499
00> 15948
01> 9498
00> 15958
01> 9538
00> 15961
01> 9561
00> 15941
01> 9504
00> 15921
01> 9436
00> 15926
01> 9444
00> 15936
01> 9479
00> 15936
01> 9493
00> 15919
01> 9441
00> 15898
01> 9368
00> 15903
01> 9376
00> 15911
01> 9421
00> 15915
01> 9445
00> 15901
01> 9396
00> 15879
01> 9319
00> 15881
01> 9320
00> 15897
01> 9370
00> 15898
01> 9393
00> 15878
01> 9334
00> 15856
01> 9256
00> 15851
01> 9253
00> 15864
01> 9298
00> 15873
01> 9330
00> 15858
01> 9290
00> 15838
01> 9217
00> 15838
01> 9216
00> 15851
01> 9255
00> 15861
01> 9290
00> 15849
01> 9258
00> 15830
01> 9189
00> 15823
01> 9184
00> 15829
01> 9213
00> 15833
01> 9238
00> 15818
01> 9196
00> 15795
01> 9126
00> 15799
01> 9146
00> 15811
01> 9200
00> 15811
01> 9219
00> 15800
01> 9175
00> 15782
01> 9106
00> 15782
01> 9118
00> 15789
01> 9163
00> 15798
01> 9185
00> 15788
01> 9152
00> 15774
01> 9090
00> 15779
01> 9103
00> 15791
01> 9154
00> 15798
01> 9180
00> 15779
01> 9135
00> 15766
01> 9071
00> 15774
01> 9089
00> 15784
01> 9138
00> 15793
01> 9160
00> 15776
01> 9112
00> 15753
01> 9048
00> 15758
01> 9060
00> 15775
01> 9116
00> 15787
01> 9141
00> 15770
01> 9104
00> 15746
01> 9039
00> 15753
01> 9046
00> 15766
01> 9095
00> 15773
01> 9129
00> 15769
01> 9096
00> 15750
01> 9024
00> 15751
01> 9027
00> 15762
01> 9079
00> 15777
01> 9119
00> 15767
01> 9083
00> 15746
01> 9009
00> 15748
01> 9021
00> 15763
01> 9078
00> 15774
01> 9119
00> 15761
01> 9089
00> 15746
01> 9021
00> 15753
01> 9032
00> 15765
01> 9083
00> 15777
01> 9114
00> 15769
01> 9089
00> 15743
01> 9021
00> 15748
01> 9028
00> 15763
01> 9073
00> 15776
01> 9113
00> 15766
01> 9077
00> 15746
01> 9008
00> 15748
01> 9014
00> 15763
01> 9069
00> 15781
01> 9119
00> 15761
01> 9084
00> 15739
01> 9008
00> 15744
01> 9008
00> 15762
01> 9060
00> 15773
01> 9098
00> 15761
01> 9071
00> 15749
01> 9008
00> 15749
01> 9011
00> 15761
01> 9063
00> 15773
01> 9102
00> 15766
01> 9074
00> 15745
01> 9003
00> 15750
01> 9020
00> 15764
01> 9076
00> 15773
01> 9113
00> 15759
01> 9082
00> 15741
01> 9008
00> 15741
01> 9005
00> 15753
01> 9050
00> 15767
01> 9101
00> 15759
01> 9080
00> 15745
01> 9016
00> 15751
01> 9021
00> 15761
01> 9065
00> 15773
01> 9101
00> 15764
01> 9072
00> 15741
01> 8999
00> 15738
01> 9002
00> 15753
01> 9059
00> 15773
01> 9114
00> 15764
01> 9094
00> 15742
01> 9024
00> 15749
01> 9020
00> 15764
01> 9069
00> 15771
01> 9106
00> 15766
01> 9088
00> 15748
01> 9029
00> 15752
01> 9024
00> 15763
01> 9059
00> 15768
01> 9093
00> 15759
01> 9079
00> 15740
01> 9014
00> 15741
01> 9016
00> 15753
01> 9064
00> 15769
01> 9120
00> 15774
01> 9109
00> 15749
01> 9029
00> 15744
01> 9023
00> 15754
01> 9062
00> 15767
01> 9102
00> 15761
01> 9086
00> 15743
01> 9019
00> 15736
01> 9009
00> 15750
01> 9050
00> 15763
01> 9095
00> 15761
01> 9086
00> 15746
01> 9024
00> 15748
01> 9019
00> 15756
01> 9061
00> 15764
01> 9104
00> 15760
01> 9099
00> 15744
01> 9041
00> 15746
01> 9032
00> 15761
01> 9072
00> 15771
01> 9103
00> 15763
01> 9081
00> 15744
01> 9019
00> 15746
01> 9023
00> 15758
01> 9069
00> 15769
01> 9103
00> 15760
01> 9077
00> 15739
01> 9005
00> 15737
01> 9000
00> 15752
01> 9054
00> 15770
01> 9107
00> 15761
01> 9096
00> 15743
01> 9028
00> 15743
01> 9021
00> 15757
01> 9058
00> 15766
01> 9094
00> 15756
01> 9079
00> 15739
01> 9016
00> 15744
01> 9016
00> 15759
01> 9062
00> 15769
01> 9102
00> 15759
01> 9088
00> 15740
01> 9023
00> 15735
01> 9015
00> 15746
01> 9058
00> 15768
01> 9104
00> 15763
01> 9088
00> 15744
01> 9024
00> 15743
01> 9025
00> 15758
01> 9075
00> 15778
01> 9114
00> 15773
01> 9102
00> 15753
01> 9028
00> 15750
01> 9019
00> 15765
01> 9070
00> 15777
01> 9116
00> 15773
01> 9113
00> 15750
01> 9037
00> 15742
01> 9020
00> 15758
01> 9066
00> 15769
01> 9104
00> 15765
01> 9090
00> 15748
01> 9026
00> 15753
01> 9019
00> 15763
01> 9067
00> 15769
01> 9108
00> 15764
01> 9089
00> 15741
01> 9017
00> 15736
01> 9007
00> 15755
01> 9067
00> 15769
01> 9109
00> 15762
01> 9092
00> 15734
01> 9023
00> 15734
01> 9009
00> 15746
01> 9052
00> 15762
01> 9098
00> 15761
01> 9088
00> 15741
01> 9018
00> 15744
01> 9012
00> 15757
01> 9063
00> 15766
01> 9110
00> 15760
01> 9104
00> 15738
01> 9025
00> 15736
01> 9003
00> 15754
01> 9050
00> 15769
01> 9101
00> 15766
01> 9096
00> 15743
01> 9024
00> 15738
01> 9016
00> 15756
01> 9073
00> 15771
01> 9113
00> 15766
01> 9096
00> 15748
01> 9028
00> 15744
01> 9016
00> 15756
01> 9055
00> 15770
01> 9096
00> 15766
01> 9093
00> 15745
01> 9025
00> 15744
01> 9013
00> 15755
01> 9054
00> 15769
01> 9104
00> 15764
01> 9096
00> 15743
01> 9028
00> 15742
01> 9016
00> 15753
01> 9053
00> 15766
01> 9089
00> 15764
01> 9092
00> 15737
01> 9028
00> 15735
01> 9011
00> 15748
01> 9061
00> 15761
01> 9117
00> 15763
01> 9119
00> 15741
01> 9040
00> 15736
01> 9016
00> 15747
01> 9061
00> 15758
01> 9103
00> 15756
01> 9102
00> 15744
01> 9035
00> 15741
01> 9013
00> 15749
01> 9062
00> 15759
01> 9111
00> 15752
01> 9098
00> 15735
01> 9028
00> 15734
01> 9015
00> 15749
01> 9065
00> 15768
01> 9109
00> 15765
01> 9104
00> 15747
01> 9039
00> 15736
01> 9016
00> 15748
01> 9063
00> 15758
01> 9102
00> 15766
01> 9091
00> 15745
01> 9021
00> 15737
01> 8996
00> 15751
01> 9051
00> 15770
01> 9105
00> 15771
01> 9113
00> 15744
01> 9043
00> 15733
01> 9010
00> 15743
01> 9051
00> 15761
01> 9099
00> 15761
01> 9103
00> 15746
01> 9041
00> 15739
01> 9023
00> 15756
01> 9066
00> 15769
01> 9103
00> 15757
01> 9094
00> 15743
01> 9028
00> 15746
01> 9016
00> 15754
01> 9055
00> 15762
01> 9093
00> 15761
01> 9094
00> 15747
01> 9032
00> 15740
01> 9004
00> 15756
01> 9048
00> 15779
01> 9107
00> 15776
01> 9113
00> 15756
01> 9044
00> 15756
01> 9019
00> 15767
01> 9059
00> 15779
01> 9100
00> 15775
01> 9101
00> 15763
01> 9039
00> 15764
01> 9014
00> 15776
01> 9058
00> 15784
01> 9110
00> 15782
01> 9114
00> 15764
01> 9043
00> 15763
01> 9019
00> 15783
01> 9066
00> 15801
01> 9109
00> 15798
01> 9109
00> 15770
01> 9051
00> 15760
01> 9021
00> 15775
01> 9068
00> 15791
01> 9115
00> 15793
01> 9114
00> 15777
01> 9047
00> 15766
01> 9016
00> 15777
01> 9056
00> 15783
01> 9101
00> 15779
01> 9097
00> 15763
01> 9030
00> 15766
01> 9009
00> 15779
01> 9059
00> 15793
01> 9117
00> 15792
01> 9126
00> 15769
01> 9059
00> 15763
01> 9023
00> 15774
01> 9065
00> 15792
01> 9114
00> 15786
01> 9118
00> 15758
01> 9044
00> 15753
01> 9006
00> 15765
01> 9044
00> 15787
01> 9104
00> 15790
01> 9116
00> 15769
01> 9057
00> 15761
01> 9023
00> 15776
01> 9063
00> 15786
01> 9111
00> 15787
01> 9113
00> 15765
01> 9045
00> 15754
01> 9016
00> 15769
01> 9055
00> 15788
01> 9108
00> 15789
01> 9121
00> 15767
01> 9054
00> 15756
01> 9014
00> 15765
01> 9049
00> 15776
01> 9104
00> 15778
01> 9120
00> 15756
01> 9049
00> 15747
01> 9009
00> 15763
01> 9049
00> 15780
01> 9108
00> 15783
01> 9125
00> 15767
01> 9059
00> 15758
01> 9024
00> 15770
01> 9065
00> 15784
01> 9116
00> 15784
01> 9123
00> 15764
01> 9053
00> 15752
01> 9018
00> 15763
01> 9063
00> 15776
01> 9116
00> 15778
01> 9120
00> 15758
01> 9054
00> 15751
01> 9025
00> 15758
01> 9061
00> 15773
01> 9113
00> 15777
01> 9123
00> 15766
01> 9064
00> 15753
01> 9033
00> 15761
01> 9073
00> 15773
01> 9112
00> 15772
01> 9117
00> 15751
01> 9049
00> 15739
01> 9006
00> 15749
01> 9051
00> 15759
01> 9101
00> 15766
01> 9117
00> 15749
01> 9056
00> 15745
01> 9021
00> 15754
01> 9058
00> 15766
01> 9099
00> 15766
01> 9108
00> 15748
01> 9046
00> 15739
01> 9003
00> 15755
01> 9047
00> 15774
01> 9111
00> 15773
01> 9128
00> 15746
01> 9063
00> 15737
01> 9020
00> 15753
01> 9062
00> 15773
01> 9119
00> 15781
01> 9134
00> 15763
01> 9073
00> 15750
01> 9031
00> 15758
01> 9059
00> 15768
01> 9110
00> 15773
01> 9128
00> 15754
01> 9063
00> 15744
01> 9028
00> 15761
01> 9071
00> 15779
01> 9121
00> 15782
01> 9134
00> 15763
01> 9069
00> 15754
01> 9030
00> 15766
01> 9066
00> 15774
01> 9106
00> 15780
01> 9124
00> 15764
01> 9066
00> 15754
01> 9028
00> 15763
01> 9060
00> 15776
01> 9113
00> 15780
01> 9129
00> 15761
01> 9071
00> 15747
01> 9029
00> 15753
01> 9055
00> 15769
01> 9099
00> 15773
01> 9118
00> 15756
01> 9060
00> 15749
01> 9006
00> 15754
01> 9037
00> 15763
01> 9096
00> 15765
01> 9114
00> 15753
01> 9065
00> 15747
01> 9025
00> 15761
01> 9051
00> 15774
01> 9092
00> 15781
01> 9115
00> 15758
01> 9059
00> 15748
01> 9015
00> 15756
01> 9044
00> 15769
01> 9098
00> 15774
01> 9118
00> 15757
01> 9064
00> 15743
01> 9022
00> 15754
01> 9058
00> 15765
01> 9098
00> 15770
01> 9107
00> 15753
01> 9048
00> 15744
01> 9009
00> 15756
01> 9051
00> 15772
01> 9105
00> 15778
01> 9126
00> 15759
01> 9064
00> 15748
01> 9016
00> 15757
01> 9049
00> 15774
01> 9111
00> 15779
01> 9135
00> 15758
01> 9080
00> 15750
01> 9031
00> 15755
01> 9063
00> 15773
01> 9114
00> 15781
01> 9133
00> 15763
01> 9081
00> 15747
01> 9026
00> 15751
01> 9052
00> 15767
01> 9101
00> 15776
01> 9121
00> 15758
01> 9070
00> 15751
01> 9029
00> 15756
01> 9064
00> 15770
01> 9123
00> 15773
01> 9146
00> 15749
01> 9077
00> 15743
01> 9029
00> 15762
01> 9074
00> 15781
01> 9134
00> 15787
01> 9157
00> 15771
01> 9106
00> 15753
01> 9051
00> 15762
01> 9078
00> 15773
01> 9124
00> 15783
01> 9146
00> 15766
01> 9095
00> 15752
01> 9046
00> 15761
01> 9078
00> 15778
01> 9129
00> 15784
01> 9148
00> 15769
01> 9096
00> 15760
01> 9057
00> 15772
01> 9094
00> 15787
01> 9147
00> 15791
01> 9174
00> 15773
01> 9119
00> 15759
01> 9060
00> 15763
01> 9081
00> 15777
01> 9139
00> 15783
01> 9160
00> 15761
01> 9105
00> 15746
01> 9063
00> 15752
01> 9095
00> 15768
01> 9143
00> 15778
01> 9162
00> 15764
01> 9107
00> 15748
01> 9051
00> 15754
01> 9078
00> 15771
01> 9131
00> 15774
01> 9155
00> 15756
01> 9105
00> 15749
01> 9051
00> 15756
01> 9069
00> 15769
01> 9118
00> 15776
01> 9149
00> 15762
01> 9108
00> 15746
01> 9062
00> 15756
01> 9084
00> 15773
01> 9133
00> 15782
01> 9160
00> 15766
01> 9104
00> 15749
01> 9042
00> 15763
01> 9076
00> 15777
01> 9140
00> 15780
01> 9166
00> 15768
01> 9116
00> 15755
01> 9066
00> 15758
01> 9084
00> 15771
01> 9134
00> 15779
01> 9163
00> 15767
01> 9118
00> 15751
01> 9061
00> 15760
01> 9088
00> 15773
01> 9139
00> 15778
01> 9162
00> 15762
01> 9116
00> 15751
01> 9058
00> 15752
01> 9083
00> 15764
01> 9130
00> 15768
01> 9150
00> 15756
01> 9096
00> 15743
01> 9038
00> 15751
01> 9064
00> 15770
01> 9122
00> 15776
01> 9151
00> 15763
01> 9119
00> 15743
01> 9068
00> 15753
01> 9081
00> 15768
01> 9131
00> 15775
01> 9153
00> 15765
01> 9106
00> 15749
01> 9048
00> 15752
01> 9070
00> 15761
01> 9120
00> 15773
01> 9153
00> 15758
01> 9113
00> 15747
01> 9059
00> 15754
01> 9083
00> 15770
01> 9132
00> 15779
01> 9155
00> 15767
01> 9108
00> 15754
01> 9052
00> 15759
01> 9072
00> 15769
01> 9122
00> 15775
01> 9150
00> 15762
01> 9108
00> 15750
01> 9056
00> 15758
01> 9078
00> 15766
01> 9122
00> 15771
01> 9142
00> 15756
01> 9086
00> 15744
01> 9028
00> 15751
01> 9054
00> 15768
01> 9116
00> 15776
01> 9144
00> 15763
01> 9098
00> 15746
01> 9044
00> 15753
01> 9073
00> 15768
01> 9126
00> 15771
01> 9154
00> 15757
01> 9111
00> 15736
01> 9053
00> 15739
01> 9069
00> 15756
01> 9112
00> 15763
01> 9144
00> 15753
01> 9106
00> 15738
01> 9046
00> 15740
01> 9066
00> 15754
01> 9126
00> 15764
01> 9163
00> 15752
01> 9118
00> 15737
01> 9049
00> 15740
01> 9063
00> 15754
01> 9111
00> 15769
01> 9145
00> 15756
01> 9099
00> 15738
01> 9039
00> 15734
01> 9043
00> 15748
01> 9084
00> 15763
01> 9127
00> 15748
01> 9093
00> 15726
01> 9036
00> 15728
01> 9057
00> 15741
01> 9106
00> 15753
01> 9134
00> 15743
01> 9088
00> 15726
01> 9033
00> 15728
01> 9053
00> 15744
01> 9106
00> 15751
01> 9133
00> 15737
01> 9089
00> 15723
01> 9027
00> 15727
01> 9042
00> 15738
01> 9096
00> 15748
01> 9136
00> 15733
01> 9091
00> 15726
01> 9024
00> 15734
01> 9048
00> 15740
01> 9110
00> 15748
01> 9149
00> 15743
01> 9117
00> 15734
01> 9057
00> 15739
01> 9068
00> 15749
01> 9112
00> 15761
01> 9141
00> 15749
01> 9106
00> 15726
01> 9043
00> 15729
01> 9056
00> 15742
01> 9109
00> 15756
01> 9148
00> 15744
01> 9104
00> 15724
01> 9034
00> 15724
01> 9040
00> 15734
01> 9091
00> 15745
01> 9134
00> 15742
01> 9101
00> 15724
01> 9036
00> 15727
01> 9044
00> 15743
01> 9102
00> 15753
01> 9137
00> 15740
01> 9096
00> 15722
01> 9036
00> 15737
01> 9059
00> 15755
01> 9114
00> 15766
01> 9145
00> 15754
01> 9114
00> 15731
01> 9051
00> 15742
01> 9069
00> 15761
01> 9121
00> 15770
01> 9156
00> 15758
01> 9119
00> 15733
01> 9045
00> 15729
01> 9048
00> 15747
01> 9099
00> 15758
01> 9135
00> 15746
01> 9110
00> 15733
01> 9051
00> 15743
01> 9064
00> 15749
01> 9108
00> 15759
01> 9133
00> 15749
01> 9083
00> 15729
01> 9016
00> 15734
01> 9024
00> 15750
01> 9078
00> 15767
01> 9133
00> 15753
01> 9107
00> 15739
01> 9036
00> 15743
01> 9037
00> 15750
01> 9078
00> 15758
01> 9120
00> 15750
01> 9098
00> 15734
01> 9039
00> 15738
01> 9058
00> 15758
01> 9116
00> 15775
01> 9156
00> 15764
01> 9131
00> 15749
01> 9068
00> 15748
01> 9063
00> 15759
01> 9103
00> 15768
01> 9135
00> 15758
01> 9106
00> 15741
01> 9050
00> 15746
01> 9071
00> 15766
01> 9118
00> 15774
01> 9153
00> 15763
01> 9126
00> 15741
01> 9059
00> 15750
01> 9073
00> 15766
01> 9122
00> 15776
01> 9161
00> 15767
01> 9134
00> 15741
01> 9057
00> 15739
01> 9055
00> 15759
01> 9118
00> 15774
01> 9163
00> 15769
01> 9135
00> 15747
01> 9064
00> 15749
01> 9071
00> 15762
01> 9117
00> 15772
01> 9153
00> 15760
01> 9133
00> 15739
01> 9071
00> 15742
01> 9068
00> 15753
01> 9116
00> 15759
01> 9151
00> 15758
01> 9131
00> 15741
01> 9064
00> 15741
01> 9071
00> 15758
01> 9120
00> 15765
01> 9151
00> 15759
01> 9127
00> 15743
01> 9069
00> 15746
01> 9073
00> 15759
01> 9126
00> 15772
01> 9161
00> 15759
01> 9129
00> 15738
01> 9055
00> 15740
01> 9060
00> 15753
01> 9113
00> 15771
01> 9161
00> 15761
01> 9131
00> 15740
01> 9053
00> 15741
01> 9049
00> 15754
01> 9104
00> 15772
01> 9155
00> 15763
01> 9139
00> 15743
01> 9068
00> 15746
01> 9068
00> 15766
01> 9118
00> 15776
01> 9159
00> 15768
01> 9136
00> 15743
01> 9068
00> 15745
01> 9075
00> 15759
01> 9125
00> 15768
01> 9158
00> 15757
01> 9131
00> 15738
01> 9054
00> 15733
01> 9049
00> 15748
01> 9103
00> 15765
01> 9150
00> 15758
01> 9131
00> 15738
01> 9053
00> 15738
01> 9046
00> 15754
01> 9104
00> 15763
01> 9145
00> 15753
01> 9122
00> 15734
01> 9054
00> 15731
01> 9050
00> 15744
01> 9100
00> 15759
01> 9142
00> 15756
01> 9127
00> 15738
01> 9062
00> 15743
01> 9058
00> 15753
01> 9112
00> 15768
01> 9161
00> 15761
01> 9143
00> 15740
01> 9074
00> 15738
01> 9066
00> 15749
01> 9109
00> 15759
01> 9151
00> 15755
01> 9136
00> 15734
01> 9066
00> 15733
01> 9059
00> 15749
01> 9116
00> 15764
01> 9158
00> 15756
01> 9136
00> 15737
01> 9064
00> 15738
01> 9064
00> 15749
01> 9111
00> 15760
01> 9149
00> 15754
01> 9140
00> 15743
01> 9078
00> 15744
01> 9073
00> 15756
01> 9124
00> 15772
01> 9166
00> 15767
01> 9153
00> 15743
01> 9090
00> 15740
01> 9074
00> 15754
01> 9114
00> 15771
01> 9170
00> 15772
01> 9167
00> 15749
01> 9100
00> 15742
01> 9084
00> 15755
01> 9126
00> 15766
01> 9170
00> 15764
01> 9156
00> 15742
01> 9079
00> 15744
01> 9068
00> 15758
01> 9119
00> 15771
01> 9176
00> 15761
01> 9156
00> 15739
01> 9083
00> 15738
01> 9074
00> 15752
01> 9124
00> 15768
01> 9170
00> 15765
01> 9163
00> 15745
01> 9094
00> 15741
01> 9082
00> 15758
01> 9128
00> 15769
01> 9163
00> 15764
01> 9152
00> 15743
01> 9088
00> 15740
01> 9084
00> 15754
01> 9132
00> 15767
01> 9167
00> 15758
01> 9158
00> 15740
01> 9094
00> 15741
01> 9084
00> 15758
01> 9123
00> 15759
01> 9153
00> 15738
01> 9134
00> 15719
01> 9061
00> 15708
01> 9043
00> 15713
01> 9087
00> 15720
01> 9123
00> 15710
01> 9094
00> 15679
01> 9001
00> 15669
01> 8970
00> 15674
01> 9007
00> 15684
01> 9053
00> 15670
01> 9036
00> 15643
01> 8953
00> 15634
01> 8931
00> 15646
01> 8968
00> 15657
01> 9010
00> 15647
01> 8984
00> 15624
01> 8914
00> 15624
01> 8912
00> 15634
01> 8967
00> 15646
01> 9011
00> 15635
01> 9003
00> 15616
01> 8941
00> 15623
01> 8937
00> 15638
01> 8988
00> 15654
01> 9036
00> 15646
01> 9018
00> 15621
01> 8941
00> 15627
01> 8934
00> 15643
01> 8982
00> 15652
01> 9025
00> 15648
01> 9018
00> 15627
01> 8946
00> 15624
01> 8931
00> 15635
01> 8979
00> 15644
01> 9023
00> 15641
01> 9010
00> 15627
01> 8951
00> 15636
01> 8950
00> 15651
01> 9006
00> 15658
01> 9049
00> 15654
01> 9039
00> 15630
01> 8968
00> 15623
01> 8951
00> 15645
01> 9009
00> 15663
01> 9063
00> 15658
01> 9061
00> 15626
01> 8980
00> 15615
01> 8947
00> 15623
01> 8975
00> 15626
01> 8998
00> 15616
01> 8979
00> 15589
01> 8899
00> 15581
01> 8866
00> 15592
01> 8908
00> 15601
01> 8951
00> 15589
01> 8938
00> 15561
01> 8860
00> 15560
01> 8846
00> 15574
01> 8889
00> 15580
01> 8914
00> 15579
01> 8904
00> 15564
01> 8848
00> 15564
01> 8844
00> 15576
01> 8886
00> 15586
01> 8929
00> 15582
01> 8936
00> 15561
01> 8864
00> 15556
01> 8841
00> 15573
01> 8891
00> 15591
01> 8946
00> 15590
01> 8948
00> 15568
01> 8877
00> 15559
01> 8852
00> 15571
01> 8890
00> 15582
01> 8921
00> 15581
01> 8917
00> 15557
01> 8858
00> 15556
01> 8846
00> 15573
01> 8892
00> 15589
01> 8936
00> 15583
01> 8925
00> 15561
01> 8856
00> 15554
01> 8834
00> 15571
01> 8879
00> 15580
01> 8922
00> 15579
01> 8918
00> 15558
01> 8853
00> 15554
01> 8838
00> 15570
01> 8885
00> 15584
01> 8924
00> 15576
01> 8919
00> 15556
01> 8856
00> 15549
01> 8837
00> 15562
01> 8873
00> 15579
01> 8917
00> 15575
01> 8917
00> 15554
01> 8848
00> 15552
01> 8829
00> 15568
01> 8876
00> 15584
01> 8918
00> 15580
01> 8914
00> 15554
01> 8843
00> 15554
01> 8826
00> 15574
01> 8879
00> 15584
01> 8923
00> 15586
01> 8928
00> 15568
01> 8858
00> 15562
01> 8828
00> 15572
01> 8867
00> 15584
01> 8916
00> 15590
01> 8926
00> 15573
01> 8864
00> 15573
01> 8839
00> 15591
01> 8887
00> 15601
01> 8931
00> 15598
01> 8929
00> 15568
01> 8866
00> 15562
01> 8834
00> 15573
01> 8874
00> 15583
01> 8921
00> 15580
01> 8925
00> 15568
01> 8869
00> 15560
01> 8845
00> 15578
01> 8885
00> 15601
01> 8928
00> 15605
01> 8946
00> 15595
01> 8895
00> 15591
01> 8862
00> 15600
01> 8891
00> 15607
01> 8944
00> 15610
01> 8959
00> 15590
01> 8893
00> 15584
01> 8873
00> 15601
01> 8926
00> 15614
01> 8979
00> 15620
01> 8989
00> 15603
01> 8928
00> 15594
01> 8904
00> 15604
01> 8944
00> 15619
01> 8982
00> 15626
01> 8994
00> 15604
01> 8932
00> 15598
01> 8904
00> 15612
01> 8941
00> 15627
01> 8988
00> 15632
01> 9000
00> 15608
01> 8938
00> 15606
01> 8905
00> 15618
01> 8941
00> 15629
01> 8984
00> 15632
01> 8994
00> 15615
01> 8933
00> 15609
01> 8909
00> 15618
01> 8947
00> 15631
01> 8989
00> 15633
01> 8994
00> 15618
01> 8939
00> 15604
01> 8900
00> 15617
01> 8936
00> 15635
01> 8987
00> 15634
01> 9000
00> 15616
01> 8934
00> 15612
01> 8896
00> 15619
01> 8933
00> 15634
01> 8982
00> 15635
01> 8982
00> 15614
01> 8921
00> 15611
01> 8901
00> 15623
01> 8949
00> 15633
01> 8993
00> 15631
01> 9001
00> 15616
01> 8940
00> 15611
01> 8906
00> 15620
01> 8944
00> 15636
01> 9000
00> 15642
01> 9013
00> 15621
01> 8943
00> 15613
01> 8906
00> 15623
01> 8947
00> 15636
01> 8994
00> 15635
01> 8998
00> 15612
01> 8927
00> 15608
01> 8895
00> 15621
01> 8938
00> 15633
01> 8984
00> 15631
01> 8986
00> 15611
01> 8916
00> 15601
01> 8879
00> 15612
01> 8930
00> 15628
01> 8978
00> 15631
01> 8983
00> 15611
01> 8922
00> 15599
01> 8883
00> 15606
01> 8923
00> 15623
01> 8983
00> 15626
01> 8993
00> 15601
01> 8921
00> 15588
01> 8887
00> 15603
01> 8921
00> 15619
01> 8975
00> 15627
01> 8995
00> 15604
01> 8927
00> 15593
01> 8880
00> 15603
01> 8923
00> 15619
01> 8979
00> 15626
01> 8990
00> 15607
01> 8928
00> 15595
01> 8893
00> 15603
01> 8930
00> 15618
01> 8978
00> 15623
01> 8996
00> 15608
01> 8934
00> 15598
01> 8899
00> 15605
01> 8932
00> 15623
01> 8977
00> 15629
01> 8998
00> 15611
01> 8941
00> 15603
01> 8899
00> 15612
01> 8933
00> 15626
01> 8980
00> 15628
01> 8990
00> 15604
01> 8927
00> 15593
01> 8879
00> 15609
01> 8920
00> 15622
01> 8970
00> 15622
01> 8978
00> 15611
01> 8918
00> 15606
01> 8882
00> 15616
01> 8923
00> 15626
01> 8973
00> 15633
01> 8988
00> 15616
01> 8921
00> 15599
01> 8879
00> 15609
01> 8918
00> 15626
01> 8965
00> 15625
01> 8977
00> 15607
01> 8918
00> 15601
01> 8878
00> 15613
01> 8916
00> 15624
01> 8962
00> 15627
01> 8974
00> 15609
01> 8916
00> 15597
01> 8865
00> 15602
01> 8902
00> 15613
01> 8961
00> 15619
01> 8981
00> 15599
01> 8918
00> 15594
01> 8870
00> 15612
01> 8917
00> 15624
01> 8971
00> 15624
01> 8988
00> 15608
01> 8929
00> 15601
01> 8880
00> 15604
01> 8908
00> 15621
01> 8964
00> 15631
01> 8981
00> 15618
01> 8934
00> 15606
01> 8896
00> 15618
01> 8931
00> 15638
01> 8980
00> 15643
01> 8994
00> 15621
01> 8935
00> 15601
01> 8894
00> 15616
01> 8935
00> 15639
01> 8998
00> 15644
01> 9027
00> 15623
01> 8977
00> 15611
01> 8924
00> 15621
01> 8939
00> 15633
01> 8983
00> 15642
01> 9004
00> 15628
01> 8961
00> 15613
01> 8923
00> 15620
01> 8949
00> 15638
01> 8999
00> 15638
01> 9018
00> 15618
01> 8956
00> 15614
01> 8907
00> 15627
01> 8945
00> 15641
01> 9001
00> 15644
01> 9017
00> 15627
01> 8958
00> 15615
01> 8909
00> 15621
01> 8940
00> 15638
01> 8989
00> 15649
01> 9017
00> 15629
01> 8956
00> 15615
01> 8904
00> 15628
01> 8939
00> 15646
01> 8999
00> 15651
01> 9017
00> 15635
01> 8963
00> 15624
01> 8916
00> 15637
01> 8943
00> 15654
01> 8994
00> 15656
01> 9021
00> 15636
01> 8972
00> 15628
01> 8926
00> 15640
01> 8946
00> 15653
01> 8987
00> 15654
01> 9012
00> 15641
01> 8966
00> 15629
01> 8924
00> 15631
01> 8951
00> 15642
01> 8994
00> 15651
01> 9020
00> 15636
01> 8968
00> 15621
01> 8919
00> 15636
01> 8954
00> 15661
01> 9011
00> 15659
01> 9026
00> 15639
01> 8976
00> 15626
01> 8929
00> 15632
01> 8950
00> 15641
01> 8995
00> 15649
01> 9026
00> 15636
01> 8969
00> 15621
01> 8906
00> 15636
01> 8945
00> 15652
01> 8998
00> 15656
01> 9016
00> 15644
01> 8973
00> 15633
01> 8934
00> 15641
01> 8963
00> 15654
01> 9010
00> 15651
01> 9025
00> 15636
01> 8980
00> 15629
01> 8931
00> 15636
01> 8963
00> 15645
01> 9014
00> 15645
01> 9037
00> 15628
01> 8986
00> 15619
01> 8931
00> 15621
01> 8949
00> 15640
01> 9002
00> 15644
01> 9026
00> 15624
01> 8968
00> 15621
01> 8929
00> 15631
01> 8961
00> 15640
01> 9002
00> 15656
01> 9037
00> 15638
01> 8992
00> 15633
01> 8948
00> 15637
01> 8968
00> 15639
01> 9006
00> 15645
01> 9028
00> 15631
01> 8974
00> 15613
01> 8919
00> 15618
01> 8947
00> 15642
01> 9004
00> 15658
01> 9038
00> 15639
01> 8986
00> 15618
01> 8924
00> 15627
01> 8944
00> 15643
01> 8992
00> 15643
01> 9011
00> 15618
01> 8953
00> 15609
01> 8905
00> 15618
01> 8936
00> 15639
01> 9006
00> 15639
01> 9028
00> 15614
01> 8968
00> 15602
01> 8907
00> 15620
01> 8932
00> 15635
01> 8977
00> 15633
01> 8991
00> 15618
01> 8946
00> 15608
01> 8897
00> 15613
01> 8919
00> 15628
01> 8973
00> 15638
01> 8993
00> 15634
01> 8952
00> 15619
01> 8911
00> 15619
01> 8939
00> 15624
01> 8991
00> 15636
01> 9032
00> 15638
01> 9019
00> 15633
01> 8976
00> 15649
01> 9017
00> 15674
01> 9091
00> 15700
01> 9139
00> 15689
01> 9108
00> 15678
01> 9061
00> 15691
01> 9107
00> 15710
01> 9171
00> 15730
01> 9218
00> 15733
01> 9198
00> 15720
01> 9139
00> 15718
01> 9146
00> 15739
01> 9188
00> 15746
01> 9218
00> 15727
01> 9166
00> 15712
01> 9099
00> 15716
01> 9111
00> 15739
01> 9166
00> 15753
01> 9197
00> 15737
01> 9143
00> 15709
01> 9073
00> 15714
01> 9091
00> 15731
01> 9139
00> 15734
01> 9163
00> 15724
01> 9116
00> 15706
01> 9049
00> 15714
01> 9061
00> 15728
01> 9118
00> 15733
01> 9154
00> 15716
01> 9107
00> 15701
01> 9043
00> 15710
01> 9065
00> 15729
01> 9120
00> 15736
01> 9148
00> 15718
01> 9092
00> 15714
01> 9040
00> 15724
01> 9064
00> 15731
01> 9120
00> 15736
01> 9148
00> 15722
01> 9098
00> 15699
01> 9018
00> 15701
01> 9029
00> 15723
01> 9096
00> 15729
01> 9140
00> 15719
01> 9108
00> 15710
01> 9040
00> 15713
01> 9051
00> 15722
01> 9096
00> 15735
01> 9135
00> 15734
01> 9102
00> 15714
01> 9038
00> 15704
01> 9049
00> 15714
01> 9097
00> 15729
01> 9136
00> 15711
01> 9095
00> 15696
01> 9033
00> 15707
01> 9049
00> 15728
01> 9099
00> 15739
01> 9138
00> 15716
01> 9086
00> 15698
01> 9028
00> 15706
01> 9049
00> 15714
01> 9089
00> 15716
01> 9104
00> 15716
01> 9075
00> 15698
01> 9009
00> 15693
01> 9018
00> 15709
01> 9079
00> 15729
01> 9119
00> 15733
01> 9089
00> 15705
01> 9014
00> 15698
01> 9015
00> 15708
01> 9061
00> 15719
01> 9089
00> 15705
01> 9046
00> 15685
01> 8993
00> 15708
01> 9023
00> 15736
01> 9083
00> 15742
01> 9114
00> 15705
01> 9059
00> 15686
01> 9002
00> 15701
01> 9019
00> 15722
01> 9071
00> 15736
01> 9104
00> 15731
01> 9074
00> 15718
01> 9012
00> 15716
01> 9023
00> 15725
01> 9073
00> 15733
01> 9101
00> 15712
01> 9061
00> 15703
01> 9007
00> 15711
01> 9019
00> 15719
01> 9059
00> 15741
01> 9109
00> 15732
01> 9078
00> 15712
01> 9016
00> 15733
01> 9051
00> 15734
01> 9079
00> 15731
01> 9098
00> 15715
01> 9064
00> 15705
01> 8999
00> 15716
01> 9014
00> 15716
01> 9058
00> 15718
01> 9091
00> 15706
01> 9052
00> 15687
01> 8991
00> 15703
01> 9018
00> 15736
01> 9086
00> 15746
01> 9107
00> 15726
01> 9072
00> 15701
01> 9012
00> 15707
01> 9019
00> 15720
01> 9063
00> 15728
01> 9099
00> 15716
01> 9069
00> 15699
01> 9007
00> 15716
01> 9019
00> 15739
01> 9068
00> 15741
01> 9104
00> 15728
01> 9076
00> 15709
01> 9019
00> 15709
01> 9032
00> 15721
01> 9087
00> 15739
01> 9126
00> 15729
01> 9084
00> 15701
01> 9008
00> 15707
01> 9020
00> 15727
01> 9082
00> 15737
01> 9121
00> 15721
01> 9083
00> 15700
01> 9010
00> 15707
01> 9024
00> 15706
01> 9078
00> 15719
01> 9120
00> 15716
01> 9088
00> 15694
01> 9011
00> 15706
01> 9019
00> 15731
01> 9079
00> 15733
01> 9110
00> 15719
01> 9079
00> 15696
01> 9004
00> 15697
01> 9013
00> 15703
01> 9056
00> 15714
01> 9088
00> 15709
01> 9066
00> 15691
01> 9003
00> 15691
01> 9009
00> 15706
01> 9062
00> 15715
01> 9101
00> 15708
01> 9069
00> 15694
01> 9011
00> 15695
01> 9011
00> 15707
01> 9051
00> 15713
01> 9079
00> 15704
01> 9050
00> 15691
01> 8992
00> 15707
01> 9010
00> 15721
01> 9063
00> 15724
01> 9092
00> 15715
01> 9065
00> 15696
01> 9003
00> 15712
01> 9012
00> 15728
01> 9054
00> 15731
01> 9084
00> 15710
01> 9058
00> 15693
01> 9008
00> 15695
01> 9023
00> 15706
01> 9073
00> 15718
01> 9115
00> 15708
01> 9089
00> 15691
01> 9014
00> 15698
01> 9025
00> 15716
01> 9086
00> 15726
01> 9121
00> 15713
01> 9095
00> 15699
01> 9032
00> 15708
01> 9038
00> 15719
01> 9084
00> 15731
01> 9120
00> 15721
01> 9096
00> 15710
01> 9031
00> 15706
01> 9024
00> 15713
01> 9064
00> 15734
01> 9112
00> 15728
01> 9092
00> 15703
01> 9016
00> 15705
01> 9017
00> 15728
01> 9073
00> 15740
01> 9104
00> 15716
01> 9066
00> 15694
01> 8998
00> 15704
01> 9011
00> 15723
01> 9066
00> 15726
01> 9104
00> 15709
01> 9073
00> 15694
01> 9001
00> 15697
01> 9004
00> 15711
01> 9051
00> 15727
01> 9098
00> 15719
01> 9088
00> 15704
01> 9026
00> 15708
01> 9023
00> 15716
01> 9064
00> 15724
01> 9100
00> 15716
01> 9085
00> 15702
01> 9021
00> 15706
01> 9014
00> 15723
01> 9064
00> 15744
01> 9114
00> 15739
01> 9088
00> 15707
01> 8998
00> 15704
01> 8997
00> 15713
01> 9058
00> 15722
01> 9095
00> 15709
01> 9068
00> 15685
01> 8992
00> 15692
01> 8996
00> 15704
01> 9054
00> 15712
01> 9090
00> 15701
01> 9069
00> 15691
01> 9003
00> 15691
01> 8996
00> 15710
01> 9043
00> 15721
01> 9089
00> 15711
01> 9076
00> 15694
01> 9013
00> 15694
01> 9004
00> 15707
01> 9048
00> 15715
01> 9084
00> 15709
01> 9068
00> 15698
01> 9006
00> 15708
01> 9013
00> 15709
01> 9054
00> 15712
01> 9084
00> 15704
01> 9063
00> 15686
01> 8987
00> 15686
01> 8984
00> 15698
01> 9044
00> 15709
01> 9091
00> 15704
01> 9071
00> 15687
01> 8999
00> 15685
01> 8986
00> 15701
01> 9030
00> 15717
01> 9081
00> 15712
01> 9069
00> 15687
01> 8989
00> 15682
01> 8970
00> 15689
01> 9020
00> 15705
01> 9074
00> 15711
01> 9071
00> 15691
01> 8996
00> 15687
01> 8987
00> 15698
01> 9031
00> 15711
01> 9067
00> 15703
01> 9047
00> 15686
01> 8978
00> 15689
01> 8981
00> 15709
01> 9029
00> 15718
01> 9064
00> 15706
01> 9044
00> 15687
01> 8968
00> 15681
01> 8954
00> 15691
01> 9000
00> 15709
01> 9053
00> 15704
01> 9049
00> 15682
01> 8976
00> 15683
01> 8959
00> 15697
01> 9004
00> 15711
01> 9050
00> 15708
01> 9046
00> 15694
01> 8977
00> 15686
01> 8958
00> 15694
01> 9000
00> 15709
01> 9044
00> 15699
01> 9035
00> 15682
01> 8968
00> 15685
01> 8963
00> 15701
01> 9017
00> 15727
01> 9071
00> 15733
01> 9064
00> 15706
01> 8994
00> 15694
01> 8987
00> 15713
01> 9049
00> 15738
01> 9104
00> 15740
01> 9113
00> 15729
01> 9073
00> 15734
01> 9079
00> 15748
01> 9135
00> 15767
01> 9181
00> 15761
01> 9164
00> 15755
01> 9099
00> 15755
01> 9079
00> 15759
01> 9113
00> 15773
01> 9153
00> 15766
01> 9142
00> 15743
01> 9072
00> 15744
01> 9057
00> 15755
01> 9103
00> 15763
01> 9144
00> 15759
01> 9133
00> 15744
01> 9067
00> 15738
01> 9041
00> 15743
01> 9080
00> 15762
01> 9122
00> 15758
01> 9109
00> 15738
01> 9032
00> 15724
01> 9011
00> 15730
01> 9056
00> 15749
01> 9103
00> 15744
01> 9095
00> 15716
01> 9021
00> 15714
01> 9006
00> 15731
01> 9050
00> 15748
01> 9106
00> 15736
01> 9086
00> 15709
01> 9000
00> 15705
01> 8988
00> 15726
01> 9047
00> 15743
01> 9095
00> 15736
01> 9080
00> 15718
01> 9000
00> 15710
01> 8973
00> 15720
01> 9024
00> 15751
01> 9083
00> 15756
01> 9072
00> 15721
01> 9001
00> 15713
01> 8983
00> 15734
01> 9051
00> 15764
01> 9117
00> 15771
01> 9123
00> 15752
01> 9066
00> 15753
01> 9069
00> 15766
01> 9118
00> 15779
01> 9167
00> 15783
01> 9180
00> 15777
01> 9131
00> 15778
01> 9117
00> 15793
01> 9167
00> 15803
01> 9219
00> 15798
01> 9210
00> 15784
01> 9141
00> 15784
01> 9121
00> 15797
01> 9173
00> 15808
01> 9209
00> 15802
01> 9188
00> 15784
01> 9121
00> 15784
01> 9101
00> 15794
01> 9141
00> 15798
01> 9174
00> 15792
01> 9164
00> 15772
01> 9090
00> 15773
01> 9065
00> 15779
01> 9103
00> 15783
01> 9144
00> 15781
01> 9138
00> 15759
01> 9072
00> 15753
01> 9048
00> 15781
01> 9107
00> 15806
01> 9153
00> 15784
01> 9136
00> 15753
01> 9057
00> 15746
01> 9028
00> 15768
01> 9075
00> 15781
01> 9117
00> 15779
01> 9114
00> 15771
01> 9051
00> 15764
01> 9024
00> 15775
01> 9068
00> 15792
01> 9114
00> 15784
01> 9114
00> 15764
01> 9047
00> 15759
01> 9031
00> 15772
01> 9078
00> 15789
01> 9118
00> 15784
01> 9116
00> 15758
01> 9058
00> 15756
01> 9039
00> 15769
01> 9084
00> 15779
01> 9118
00> 15777
01> 9111
00> 15750
01> 9038
00> 15735
01> 9018
00> 15753
01> 9069
00> 15773
01> 9115
00> 15773
01> 9109
00> 15746
01> 9031
00> 15735
01> 9003
00> 15753
01> 9059
00> 15765
01> 9119
00> 15759
01> 9119
00> 15744
01> 9044
00> 15748
01> 9014
00> 15756
01> 9041
00> 15768
01> 9089
00> 15762
01> 9105
00> 15733
01> 9034
00> 15728
01> 9004
00> 15746
01> 9046
00> 15763
01> 9099
00> 15760
01> 9099
00> 15740
01> 9017
00> 15729
01> 8989
00> 15739
01> 9033
00> 15751
01> 9078
00> 15754
01> 9080
00> 15734
01> 9011
00> 15734
01> 8996
00> 15749
01> 9041
00> 15747
01> 9078
00> 15754
01> 9084
00> 15736
01> 9022
00> 15730
01> 8994
00> 15751
01> 9044
00> 15767
01> 9099
00> 15757
01> 9104
00> 15741
01> 9044
00> 15753
01> 9022
00> 15774
01> 9081
00> 15786
01> 9148
00> 15796
01> 9179
00> 15779
01> 9124
00> 15769
01> 9088
00> 15785
01> 9101
00> 15803
01> 9132
00> 15804
01> 9158
00> 15786
01> 9109
00> 15776
01> 9085
00> 15782
01> 9120
00> 15799
01> 9166
00> 15802
01> 9165
00> 15778
01> 9092
00> 15771
01> 9057
00> 15778
01> 9091
00> 15792
01> 9141
00> 15805
01> 9160
00> 15787
01> 9102
00> 15774
01> 9066
00> 15786
01> 9104
00> 15787
01> 9132
00> 15791
01> 9138
00> 15777
01> 9078
00> 15780
01> 9053
00> 15793
01> 9103
00> 15794
01> 9147
00> 15790
01> 9145
00> 15775
01> 9076
00> 15767
