# SEGGER J-Link RTT Viewer V6.62 Terminal Log File
# Compiled: 16:34:01 on Jan 24 2020
# Logging started @ 07 Jun 2024 22:36:43

00> 9578
01> 197164
00> 9548
01> 196903
00> 9463
01> 197363
00> 9478
01> 197809
00> 9550
01> 197617
00> 9593
01> 197170
00> 9575
01> 196938
00> 9501
01> 197400
00> 9489
01> 197825
00> 9538
01> 197636
00> 9566
01> 197201
00> 9549
01> 196960
00> 9482
01> 197396
00> 9491
01> 197834
00> 9546
01> 197654
00> 9600
01> 197228
00> 9559
01> 196991
00> 9451
01> 197403
00> 9453
01> 197831
00> 9533
01> 197688
00> 9558
01> 197274
00> 9534
01> 197029
00> 9469
01> 197433
00> 9466
01> 197845
00> 9513
01> 197700
00> 9541
01> 197306
00> 9535
01> 197118
00> 9486
01> 197544
00> 9508
01> 197938
00> 9544
01> 197734
00> 9541
01> 197298
00> 9511
01> 197089
00> 9449
01> 197489
00> 9448
01> 197869
00> 9520
01> 197714
00> 9579
01> 197312
00> 9543
01> 197061
00> 9469
01> 197425
00> 9456
01> 197788
00> 9504
01> 197641
00> 9529
01> 197273
00> 9506
01> 197048
00> 9453
01> 197422
00> 9476
01> 197816
00> 9546
01> 197673
00> 9549
01> 197286
00> 9506
01> 197059
00> 9449
01> 197433
00> 9461
01> 197816
00> 9509
01> 197689
00> 9536
01> 197345
00> 9531
01> 197139
00> 9478
01> 197474
00> 9469
01> 197834
00> 9494
01> 197698
00> 9522
01> 197357
00> 9513
01> 197160
00> 9468
01> 197511
00> 9476
01> 197886
00> 9506
01> 197763
00> 9519
01> 197406
00> 9512
01> 197185
00> 9466
01> 197512
00> 9446
01> 197848
00> 9486
01> 197693
00> 9529
01> 197325
00> 9505
01> 197096
00> 9433
01> 197408
00> 9423
01> 197756
00> 9474
01> 197624
00> 9504
01> 197261
00> 9485
01> 197038
00> 9426
01> 197346
00> 9424
01> 197694
00> 9489
01> 197589
00> 9517
01> 197253
00> 9471
01> 197009
00> 9423
01> 197303
00> 9423
01> 197675
00> 9430
01> 197563
00> 9459
01> 197223
00> 9483
01> 197028
00> 9433
01> 197319
00> 9414
01> 197644
00> 9447
00> 
01> 197548
00> 9478
01> 197274
00> 9471
01> 197108
00> 9409
01> 197389
00> 9386
01> 197701
00> 9416
01> 197599
00> 9444
01> 197296
00> 9449
01> 197117
00> 9399
01> 197433
00> 9410
01> 197773
00> 9464
01> 197664
00> 9499
01> 197341
00> 9483
01> 197141
00> 9386
01> 197437
00> 9364
01> 197772
00> 9396
01> 197682
00> 9442
01> 197398
00> 9458
01> 197214
00> 9414
01> 197516
00> 9397
01> 197852
00> 9436
01> 197744
00> 9464
01> 197426
00> 9446
01> 197236
00> 9379
01> 197561
00> 9361
01> 197915
00> 9430
01> 197821
00> 9471
01> 197486
00> 9456
01> 197260
00> 9396
01> 197552
00> 9393
01> 197911
00> 9394
01> 197809
00> 9441
01> 197517
00> 9442
01> 197339
00> 9395
01> 197658
00> 9388
01> 198021
00> 9438
01> 197924
00> 9461
01> 197586
00> 9449
01> 197378
00> 9394
01> 197683
00> 9384
01> 198054
00> 9428
01> 197971
00> 9464
01> 197666
00> 9443
01> 197462
00> 9409
01> 197769
00> 9409
01> 198160
00> 9439
01> 198089
00> 9463
01> 197775
00> 9438
01> 197559
00> 9389
01> 197845
00> 9406
01> 198222
00> 9443
01> 198141
00> 9478
01> 197814
00> 9472
01> 197586
00> 9408
01> 197866
00> 9405
01> 198251
00> 9439
01> 198174
00> 9472
01> 197863
00> 9443
01> 197623
00> 9396
01> 197920
00> 9393
01> 198328
00> 9431
01> 198271
00> 9435
01> 197959
00> 9421
01> 197729
00> 9373
01> 198026
00> 9393
01> 198458
00> 9425
01> 198428
00> 9448
01> 198127
00> 9451
01> 197905
00> 9394
01> 198181
00> 9376
01> 198569
00> 9426
01> 198514
00> 9460
01> 198206
00> 9447
01> 197966
00> 9385
01> 198221
00> 9368
01> 198581
00> 9408
01> 198511
00> 9465
01> 198216
00> 9481
01> 198011
00> 9400
01> 198293
00> 9367
01> 198716
00> 9432
01> 198720
00> 9459
01> 198427
00> 9454
01> 198178
00> 9420
01> 198437
00> 9412
01> 198836
00> 9445
01> 198805
00> 9465
01> 198498
00> 9465
01> 198263
00> 9416
01> 198574
00> 9401
01> 199020
00> 9455
01> 199001
00> 9499
01> 198681
00> 9477
01> 198413
00> 9414
01> 198691
00> 9423
01> 199114
00> 9491
01> 199092
00> 9532
01> 198817
00> 9525
01> 198602
00> 9465
01> 198910
00> 9454
01> 199344
00> 9513
01> 199283
00> 9565
01> 198939
00> 9559
01> 198691
00> 9481
01> 198981
00> 9490
01> 199436
00> 9530
01> 199418
00> 9552
01> 199132
00> 9548
01> 198921
00> 9509
01> 199244
00> 9477
01> 199677
00> 9501
01> 199656
00> 9549
01> 199366
00> 9538
01> 199111
00> 9464
01> 199391
00> 9445
01> 199829
00> 9490
01> 199819
00> 9533
01> 199538
00> 9530
01> 199303
00> 9488
01> 199591
00> 9464
01> 200000
00> 9483
01> 199958
00> 9524
01> 199669
00> 9522
01> 199431
00> 9473
01> 199719
00> 9474
01> 200165
00> 9490
01> 200168
00> 9509
01> 199932
00> 9516
01> 199742
00> 9455
01> 200056
00> 9441
01> 200524
00> 9472
01> 200551
00> 9534
01> 200324
00> 9536
01> 200129
00> 9469
01> 200463
00> 9439
01> 200976
00> 9470
01> 201064
00> 9498
01> 200861
00> 9498
01> 200700
00> 9444
01> 201043
00> 9434
01> 201541
00> 9476
01> 201594
00> 9506
01> 201371
00> 9511
01> 201211
00> 9465
00> 10066
01> 11370
00> 10064
01> 11364
00> 10038
01> 11309
00> 10036
01> 11294
00> 10056
01> 11344
00> 10079
01> 11389
00> 10078
01> 11389
00> 10049
01> 11313
00> 10043
01> 11292
00> 10065
01> 11344
00> 10073
01> 11393
00> 10074
01> 11397
00> 10051
01> 11324
00> 10039
01> 11291
00> 10054
01> 11342
00> 10070
01> 11386
00> 10063
01> 11375
00> 10039
01> 11317
00> 10039
01> 11300
00> 10053
01> 11336
00> 10063
01> 11367
00> 10062
01> 11362
00> 10045
01> 11306
00> 10034
01> 11286
00> 10039
01> 11318
00> 10064
01> 11361
00> 10067
01> 11359
00> 10048
01> 11296
00> 10041
01> 11266
00> 10061
01> 11311
00> 10078
01> 11361
00> 10071
01> 11358
00> 10051
01> 11294
00> 10049
01> 11280
00> 10068
01> 11329
00> 10081
01> 11364
00> 10078
01> 11365
00> 10051
01> 11299
00> 10044
01> 11267
00> 10073
01> 11323
00> 10093
01> 11375
00> 10091
01> 11372
00> 10063
01> 11301
00> 10054
01> 11271
00> 10074
01> 11316
00> 10089
01> 11366
00> 10093
01> 11377
00> 10063
01> 11301
00> 10054
01> 11262
00> 10074
01> 11301
00> 10093
01> 11360
00> 10097
01> 11378
00> 10078
01> 11321
00> 10075
01> 11301
00> 10085
01> 11333
00> 10093
01> 11358
00> 10083
01> 11356
00> 10069
01> 11302
00> 10075
01> 11292
00> 10098
01> 11344
00> 10110
01> 11381
00> 10108
01> 11379
00> 10088
01> 11323
00> 10087
01> 11289
00> 10096
01> 11320
00> 10096
01> 11356
00> 10091
01> 11354
00> 10070
01> 11290
00> 10071
01> 11282
00> 10089
01> 11346
00> 10099
01> 11390
00> 10094
01> 11383
00> 10075
01> 11321
00> 10069
01> 11291
00> 10082
01> 11314
00> 10094
01> 11356
00> 10101
01> 11368
00> 10078
01> 11304
00> 10069
01> 11273
00> 10089
01> 11317
00> 10105
01> 11361
00> 10107
01> 11364
00> 10083
01> 11315
00> 10063
01> 11289
00> 10079
01> 11330
00> 10102
01> 11372
00> 10106
01> 11385
00> 10088
01> 11321
00> 10078
01> 11267
00> 10085
01> 11297
00> 10096
01> 11354
00> 10103
01> 11378
00> 10088
01> 11329
00> 10077
01> 11294
00> 10088
01> 11328
00> 10098
01> 11365
00> 10098
01> 11362
00> 10076
01> 11299
00> 10073
01> 11264
00> 10089
01> 11312
00> 10104
01> 11369
00> 10108
01> 11379
00> 10086
01> 11324
00> 10073
01> 11293
00> 10091
01> 11339
00> 10098
01> 11371
00> 10101
01> 11363
00> 10086
01> 11309
00> 10083
01> 11291
00> 10096
01> 11333
00> 10106
01> 11365
00> 10105
01> 11357
00> 10091
01> 11309
00> 10084
01> 11318
00> 10103
01> 11368
00> 10124
01> 11402
00> 10128
01> 11397
00> 10109
01> 11329
00> 10094
01> 11293
00> 10099
01> 11334
00> 10118
01> 11381
00> 10118
01> 11390
00> 10102
01> 11348
00> 10094
01> 11324
00> 10102
01> 11351
00> 10112
01> 11386
00> 10115
01> 11391
00> 10101
01> 11342
00> 10089
01> 11300
00> 10106
01> 11333
00> 10123
01> 11377
00> 10129
01> 11378
00> 10113
01> 11319
00> 10100
01> 11289
00> 10116
01> 11337
00> 10128
01> 11374
00> 10130
01> 11382
00> 10116
01> 11344
00> 10103
01> 11313
00> 10113
01> 11354
00> 10129
01> 11389
00> 10127
01> 11385
00> 10106
01> 11342
00> 10094
01> 11311
00> 10109
01> 11339
00> 10128
01> 11368
00> 10119
01> 11370
00> 10101
01> 11329
00> 10106
01> 11306
00> 10125
01> 11343
00> 10134
01> 11383
00> 10128
01> 11379
00> 10096
01> 11315
00> 10090
01> 11283
00> 10116
01> 11328
00> 10126
01> 11366
00> 10128
01> 11381
00> 10119
01> 11335
00> 10113
01> 11308
00> 10123
01> 11346
00> 10134
01> 11379
00> 10129
01> 11371
00> 10101
01> 11313
00> 10091
01> 11289
00> 10106
01> 11324
00> 10119
01> 11362
00> 10115
01> 11356
00> 10092
01> 11290
00> 10088
01> 11271
00> 10109
01> 11316
00> 10134
01> 11358
00> 10120
01> 11358
00> 10086
01> 11298
00> 10084
01> 11274
00> 10099
01> 11306
00> 10111
01> 11349
00> 10118
01> 11367
00> 10099
01> 11311
00> 10091
01> 11277
00> 10101
01> 11297
00> 10113
01> 11339
00> 10115
01> 11354
00> 10092
01> 11306
00> 10088
01> 11266
00> 10106
01> 11286
00> 10122
01> 11326
00> 10124
01> 11350
00> 10103
01> 11310
00> 10085
01> 11264
00> 10095
01> 11292
00> 10109
01> 11324
00> 10116
01> 11340
00> 10096
01> 11296
00> 10084
01> 11266
00> 10096
01> 11296
00> 10112
01> 11328
00> 10117
01> 11323
00> 10096
01> 11256
00> 10087
01> 11233
00> 10093
01> 11279
00> 10113
01> 11326
00> 10128
01> 11337
00> 10111
01> 11293
00> 10098
01> 11266
00> 10111
01> 11299
00> 10124
01> 11336
00> 10116
01> 11331
00> 10093
01> 11278
00> 10083
01> 11261
00> 10096
01> 11298
00> 10111
01> 11331
00> 10119
01> 11337
00> 10108
01> 11291
00> 10085
01> 11246
00> 10085
01> 11261
00> 10102
01> 11310
00> 10120
01> 11344
00> 10111
01> 11311
00> 10093
01> 11286
00> 10103
01> 11312
00> 10113
01> 11339
00> 10110
01> 11338
00> 10084
01> 11273
00> 10084
01> 11235
00> 10101
01> 11273
00> 10113
01> 11322
00> 10116
01> 11338
00> 10101
01> 11285
00> 10094
01> 11257
00> 10111
01> 11301
00> 10126
01> 11339
00> 10128
01> 11347
00> 10099
01> 11294
00> 10093
01> 11261
00> 10115
01> 11296
00> 10128
01> 11332
00> 10131
01> 11337
00> 10109
01> 11288
00> 10090
01> 11254
00> 10098
01> 11291
00> 10116
01> 11331
00> 10129
01> 11341
00> 10111
01> 11298
00> 10099
01> 11262
00> 10111
01> 11286
00> 10124
01> 11322
00> 10124
01> 11340
00> 10104
01> 11299
00> 10109
01> 11284
00> 10126
01> 11323
00> 10136
01> 11354
00> 10136
01> 11358
00> 10106
01> 11301
00> 10097
01> 11266
00> 10114
01> 11303
00> 10123
01> 11338
00> 10122
01> 11346
00> 10107
01> 11309
00> 10104
01> 11275
00> 10122
01> 11308
00> 10148
01> 11359
00> 10148
01> 11371
00> 10125
01> 11326
00> 10109
01> 11286
00> 10119
01> 11323
00> 10133
01> 11364
00> 10147
01> 11379
00> 10135
01> 11325
00> 10123
01> 11281
00> 10127
01> 11305
00> 10136
01> 11343
00> 10144

00> 10121
01> 11318
00> 10106
01> 11284
00> 10118
01> 11306
00> 10137
01> 11356
00> 10136
01> 11364
00> 10114
01> 11317
00> 10105
01> 11287
00> 10116
01> 11313
00> 10127
01> 11350
00> 10139
01> 11371
00> 10124
01> 11330
00> 10102
01> 11279
00> 10110
01> 11299
00> 10131
01> 11342
00> 10139
01> 11369
00> 10127
01> 11323
00> 10103
01> 11282
00> 10118
01> 11326
00> 10134
01> 11367
00> 10139
01> 11380
00> 10126
01> 11336
00> 10116
01> 11300
00> 10129
01> 11327
00> 10148
01> 11373
00> 10149
01> 11384
00> 10126
01> 11330
00> 10111
01> 11299
00> 10126
01> 11334
00> 10142
01> 11372
00> 10140
01> 11378
00> 10138
01> 11343
00> 10119
01> 11299
00> 10124
01> 11326
00> 10143
01> 11366
00> 10149
01> 11375
00> 10129
01> 11326
00> 10109
01> 11285
00> 10119
01> 11316
00> 10135
01> 11356
00> 10142
01> 11371
00> 10129
01> 11326
00> 10124
01> 11289
00> 10132
01> 11323
00> 10147
01> 11371
00> 10149
01> 11402
00> 10134
01> 11368
00> 10119
01> 11321
00> 10123
01> 11334
00> 10144
01> 11368
00> 10144
01> 11364
00> 10128
01> 11328
00> 10116
01> 11299
00> 10123
01> 11326
00> 10136
01> 11371
00> 10157
01> 11393
00> 10148
01> 11346
00> 10131
01> 11296
00> 10134
01> 11321
00> 10136
01> 11358
00> 10145
01> 11376
00> 10142
01> 11344
00> 10121
01> 11297
00> 10132
01> 11319
00> 10152
01> 11361
00> 10159
01> 11391
00> 10141
01> 11350
00> 10126
01> 11299
00> 10130
01> 11321
00> 10148
01> 11364
00> 10160
01> 11383
00> 10135
01> 11334
00> 10110
01> 11277
00> 10126
01> 11311
00> 10148
01> 11363
00> 10153
01> 11381
00> 10142
01> 11338
00> 10133
01> 11296
00> 10133
01> 11319
00> 10150
01> 11369
00> 10161
01> 11392
00> 10141
01> 11342
00> 10121
01> 11293
00> 10128
01> 11321
00> 10135
01> 11344
00> 10139
01> 11353
00> 10121
01> 11316
00> 10110
01> 11269
00> 10132
01> 11288
00> 10149
01> 11326
00> 10157
01> 11367
00> 10141
01> 11331
00> 10129
01> 11294
00> 10149
01> 11333
00> 10153
01> 11358
00> 10148
01> 11363
00> 10141
01> 11323
00> 10126
01> 11280
00> 10133
01> 11313
00> 10148
01> 11348
00> 10152
01> 11351
00> 10141
01> 11303
00> 10129
01> 11271
00> 10143
01> 11318
00> 10171
01> 11361
00> 10186
01> 11378
00> 10167
01> 11335
00> 10138
01> 11284
00> 10147
01> 11316
00> 10164
01> 11358
00> 10161
01> 11363
00> 10144
01> 11324
00> 10137
01> 11293
00> 10153
01> 11329
00> 10178
01> 11378
00> 10184
01> 11389
00> 10162
01> 11334
00> 10147
01> 11274
00> 10156
01> 11298
00> 10166
01> 11343
00> 10171
01> 11361
00> 10161
01> 11336
00> 10147
01> 11286
00> 10149
01> 11308
00> 10164
01> 11351
00> 10175
01> 11374
00> 10164
01> 11339
00> 10147
01> 11279
00> 10151
01> 11293
00> 10166
01> 11334
00> 10174
01> 11355
00> 10163
01> 11328
00> 10158
01> 11293
00> 10168
01> 11309
00> 10173
01> 11343
00> 10177
01> 11363
00> 10160
01> 11324
00> 10144
01> 11278
00> 10151
01> 11294
00> 10168
01> 11328
00> 10179
01> 11349
00> 10170
01> 11315
00> 10152
01> 11268
00> 10148
01> 11290
00> 10166
01> 11340
00> 10168
01> 11356
00> 10154
01> 11316
00> 10144
01> 11280
00> 10161
01> 11310
00> 10176
01> 11344
00> 10184
01> 11356
00> 10168
01> 11316
00> 10152
01> 11253
00> 10167
01> 11289
00> 10179
01> 11349
00> 10182
01> 11383
00> 10166
01> 11343
00> 10152
01> 11283
00> 10170
01> 11307
00> 10176
01> 11342
00> 10173
01> 11359
00> 10166
01> 11323
00> 10159
01> 11267
00> 10163
01> 11290
00> 10172
01> 11338
00> 10179
01> 11334
00> 10166
01> 11281
00> 10154
01> 11253
00> 10159
01> 11289
00> 10178
01> 11337
00> 10191
01> 11358
00> 10170
01> 11321
00> 10150
01> 11271
00> 10162
01> 11285
00> 10173
01> 11317
00> 10181
01> 11333
00> 10171
01> 11302
00> 10158
01> 11243
00> 10159
01> 11261
00> 10178
01> 11319
00> 10188
01> 11343
00> 10178
01> 11308
00> 10152
01> 11249
00> 10156
01> 11268
00> 10179
01> 11314
00> 10186
01> 11333
00> 10173
01> 11300
00> 10160
01> 11268
00> 10172
01> 11298
00> 10182
01> 11327
00> 10187
01> 11333
00> 10174
01> 11299
00> 10149
01> 11249
00> 10149
01> 11259
00> 10165
01> 11298
00> 10178
01> 11325
00> 10171
01> 11296
00> 10161
01> 11247
00> 10167
01> 11261
00> 10178
01> 11310
00> 10180
01> 11335
00> 10158
01> 11299
00> 10139
01> 11245
00> 10148
01> 11260
00> 10165
01> 11308
00> 10177
01> 11329
00> 10168
01> 11292
00> 10152
01> 11228
00> 10164
01> 11245
00> 10184
01> 11293
00> 10184
01> 11311
00> 10169
01> 11268
00> 10149
01> 11203
00> 10163
01> 11231
00> 10184
01> 11292
00> 10189
01> 11323
00> 10176
01> 11285
00> 10157
01> 11218
00> 10155
01> 11221
00> 10176
01> 11263
00> 10193
01> 11303
00> 10189
01> 11276
00> 10172
01> 11220
00> 10174
01> 11223
00> 10180
01> 11252
00> 10182
01> 11271
00> 10169
01> 11251
00> 10152
01> 11206
00> 10158
01> 11229
00> 10181
01> 11271
00> 10191
01> 11287
00> 10173
01> 11257
00> 10156
01> 11209
00> 10164
01> 11226
00> 10179
01> 11271
00> 10193
01> 11301
00> 10179
01> 11272
00> 10163
01> 11211
00> 10170
01> 11216
00> 10174
01> 11248
00> 10188
01> 11273
00> 10177
01> 11247
00> 10154
01> 11183
00> 10166
01> 11204
00> 10186
01> 11267
00> 10189
01> 11298
00> 10171
01> 11263
00> 10145
01> 11180
00> 10148
01> 11184
00> 10159
01> 11236
00> 10181
01> 11273
00> 10169
01> 11240
00> 10161
01> 11193
00> 10169
01> 11204
00> 10178
01> 11234
00> 10182
01> 11255
00> 10173
01> 11235
00> 10159
01> 11171
00> 10166
01> 11187
00> 10185
01> 11251
00> 10199
01> 11283
00> 10185
01> 11241
00> 10161
01> 11176
00> 10169
01> 11189
00> 10185
01> 11235
00> 10199
01> 11266
00> 10189
01> 11228
00> 10156
01> 11167
00> 10164
01> 11199
00> 10179
01> 11245
00> 10183
01> 11264
00> 10174
01> 11229
00> 10154
01> 11167
00> 10158
01> 11188
00> 10173
01> 11237
00> 10193
01> 11262
00> 10185
01> 11236
00> 10165
01> 11178
00> 10173
01> 11187
00> 10184
01> 11236
00> 10198
01> 11268
00> 10193
01> 11254
00> 10175
01> 11188
00> 10176
01> 11189
00> 10189
01> 11227
00> 10196
01> 11260
00> 10183
01> 11241
00> 10166
01> 11183
00> 10171
01> 11180
00> 10193
01> 11224
00> 10198
01> 11245
00> 10195
01> 11227
00> 10173
01> 11173
00> 10176
01> 11172
00> 10194
01> 11208
00> 10208
01> 11240
00> 10200
01> 11233
00> 10181
01> 11189
00> 10179
01> 11192
00> 10189
01> 11233
00> 10198
01> 11260
00> 10186
01> 11219
00> 10163
01> 11145
00> 10154
01> 11152
00> 10178
01> 11209
00> 10198
01> 11252
00> 10181
01> 11221
00> 10151
01> 11151
00> 10161
01> 11158
00> 10179
01> 11206
00> 10187
01> 11234
00> 10172
01> 11203
00> 10143
01> 11136
00> 10155
01> 11150
00> 10170
01> 11185
00> 10181
01> 11218
00> 10173
01> 11201
00> 10159
01> 11149
00> 10164
01> 11156
00> 10185
01> 11204
00> 10199
01> 11241
00> 10187
01> 11216
00> 10160
01> 11148
00> 10173
01> 11159
00> 10187
01> 11205
00> 10193
01> 11243
00> 10180
01> 11219
00> 10154
01> 11149
00> 10155
01> 11157
00> 10174
01> 11215
00> 10186
01> 11241
00> 10176
01> 11211
00> 10156
01> 11153
00> 10162
01> 11153
00> 10173
01> 11193
00> 10171
01> 11223
00> 10168
01> 11203
00> 10154
01> 11149
00> 10152
01> 11152
00> 10167
01> 11187
00> 10176
01> 11212
00> 10174
01> 11204
00> 10158
01> 11155
00> 10151
01> 11143
00> 10170
01> 11190
00> 10191
01> 11219
00> 10178
01> 11191
00> 10159
01> 11131
00> 10165
01> 11143
00> 10173
01> 11188
00> 10179
01> 11214
00> 10169
01> 11190
00> 10144
01> 11134
00> 10152
01> 11140
00> 10164
01> 11190
00> 10169
01> 11232
00> 10156
01> 11208
00> 10137
01> 11149
00> 10142
01> 11146
00> 10161
01> 11189
00> 10166
01> 11213
00> 10155
01> 11189
00> 10141
01> 11144
00> 10138
01> 11150
00> 10165
01> 11197
00> 10185
01> 11229
00> 10173
01> 11208
00> 10154
01> 11151
00> 10154
01> 11152
00> 10169
01> 11200
00> 10179
01> 11231
00> 10176
01> 11202
00> 10157
01> 11129
00> 10153
01> 11139
00> 10166
01> 11190
00> 10191
01> 11234
00> 10187
01> 11219
00> 10165
01> 11151
00> 10169
01> 11156
00> 10184
01> 11202
00> 10189
01> 11224
00> 10184
01> 11207
00> 10165
01> 11149
00> 10180
01> 11167
00> 10196
01> 11214
00> 10197
01> 11231
00> 10186
01> 11212
00> 10168
01> 11144
00> 10172
01> 11141
00> 10193
01> 11182
00> 10191
01> 11212
00> 10183
01> 11204
00> 10164
01> 11148
00> 10164
01> 11149
00> 10183
01> 11196
00> 10191
01> 11222
00> 10187
01> 11204
00> 10161
01> 11138
00> 10163
01> 11148
00> 10176
01> 11196
00> 10190
01> 11231
00> 10182
01> 11206
00> 10159
01> 11143
00> 10176
01> 11150
00> 10193
01> 11193
00> 10206
01> 11231
00> 10191
01> 11202
00> 10164
01> 11131
00> 10160
01> 11119
00> 10176
01> 11161
00> 10192
01> 11216
00> 10187
01> 11215
00> 10167
01> 11153
00> 10176
01> 11147
00> 10196
01> 11196
00> 10209
01> 11218
00> 10198
01> 11191
00> 10168
01> 11126
00> 10166
01> 11132
00> 10188
01> 11194
00> 10199
01> 11228
00> 10184
01> 11197
00> 10157
01> 11114
00> 10157
01> 11112
00> 10171
01> 11174
00> 10191
01> 11226
00> 10191
01> 11217
00> 10168
01> 11134
00> 10174
01> 11123
00> 10197
01> 11181
00> 10207
01> 11221
00> 10188
01> 11196
00> 10161
01> 11133
00> 10162
01> 11130
00> 10173
01> 11164
00> 10183
01> 11193
00> 10181
01> 11182
00> 10155
01> 11121
00> 10159
01> 11123
00> 10188
01> 11179
00> 10203
01> 11215
00> 10198
01> 11196
00> 10171
01> 11124
00> 10169
01> 11112
00> 10179
01> 11158
00> 10193
01> 11194
00> 10186
01> 11173
00> 10161
01> 11107
00> 10164
01> 11110
00> 10179
01> 11150
00> 10192
01> 11184
00> 10185
01> 11171
00> 10156
01> 11111
00> 10160
01> 11114
00> 10182
01> 11176
00> 10191
01> 11209
00> 10183
01> 11183
00> 10160
01> 11116
00> 10163
01> 11118
00> 10179
01> 11171
00> 10196
01> 11206
00> 10192
01> 11194
00> 10169
01> 11128
00> 10168
01> 11121
00> 10185
01> 11169
00> 10199
01> 11204
00> 10188
01> 11178
00> 10167
01> 11114
00> 10173
01> 11130
00> 10198
01> 11177
00> 10211
01> 11206
00> 10193
01> 11194
00> 10170
01> 11128
00> 10168
01> 11120
00> 10184
01> 11163
00> 10189
01> 11193
00> 10177
01> 11179
00> 10158
01> 11111
00> 10161
01> 11107
00> 10178
01> 11159
00> 10194
01> 11199
00> 10193
01> 11173
00> 10164
01> 11098
00> 10159
01> 11085
00> 10181
01> 11142
00> 10201
01> 11186
00> 10195
01> 11176
00> 10170
01> 11111
00> 10164
01> 11097
00> 10175
01> 11140
00> 10193
01> 11178
00> 10184
01> 11163
00> 10153
01> 11099
00> 10150
01> 11093
00> 10171
01> 11139
00> 10185
01> 11175
00> 10171
01> 11153
00> 10148
01> 11093
00> 10157
01> 11094
00> 10178
01> 11134
00> 10193

00> 10190
01> 11175
00> 10163
01> 11110
00> 10162
01> 11104
00> 10176
01> 11152
00> 10188
01> 11187
00> 10179
01> 11163
00> 10150
01> 11079
00> 10144
01> 11068
00> 10161
01> 11129
00> 10189
01> 11179
00> 10193
01> 11165
00> 10167
01> 11096
00> 10159
01> 11083
00> 10173
01> 11130
00> 10186
01> 11165
00> 10178
01> 11149
00> 10159
01> 11084
00> 10155
01> 11069
00> 10175
01> 11115
00> 10195
01> 11163
00> 10191
01> 11149
00> 10162
01> 11064
00> 10153
01> 11046
00> 10159
01> 11109
00> 10179
01> 11159
00> 10179
01> 11154
00> 10158
01> 11096
00> 10158
01> 11077
00> 10169
01> 11119
00> 10182
01> 11154
00> 10174
01> 11141
00> 10150
01> 11073
00> 10149
01> 11053
00> 10161
01> 11098
00> 10171
01> 11140
00> 10171
01> 11142
00> 10140
01> 11068
00> 10134
01> 11053
00> 10155
01> 11094
00> 10176
01> 11139
00> 10171
01> 11130
00> 10151
01> 11066
00> 10153
01> 11053
00> 10166
01> 11086
00> 10174
01> 11119
00> 10162
01> 11102
00> 10138
01> 11029
00> 10133
01> 11019
00> 10151
01> 11074
00> 10171
01> 11113
00> 10173
01> 11114
00> 10148
01> 11049
00> 10141
01> 11043
00> 10153
01> 11096
00> 10164
01> 11125
00> 10159
01> 11105
00> 10133
01> 11031
00> 10126
01> 11008
00> 10149
01> 11069
00> 10168
01> 11113
00> 10168
01> 11094
00> 10149
01> 11031
00> 10136
01> 11025
00> 10144
01> 11076
00> 10154
01> 11119
00> 10155
01> 11109
00> 10129
01> 11019
00> 10124
01> 10999
00> 10146
01> 11041
00> 10164
01> 11092
00> 10166
01> 11104
00> 10137
01> 11044
00> 10128
01> 11029
00> 10149
01> 11091
00> 10156
01> 11121
00> 10156
01> 11100
00> 10128
01> 11019
00> 10127
01> 11015
00> 10150
01> 11079
00> 10169
01> 11130
00> 10167
01> 11121
00> 10144
01> 11043
00> 10141
01> 11024
00> 10156
01> 11060
00> 10164
01> 11096
00> 10161
01> 11096
00> 10149
01> 11035
00> 10143
01> 11005
00> 10154
01> 11053
00> 10176
01> 11109
00> 10177
01> 11113
00> 10146
01> 11036
00> 10137
01> 11012
00> 10158
01> 11056
00> 10174
01> 11098
00> 10170
01> 11097
00> 10148
01> 11037
00> 10151
01> 11022
00> 10168
01> 11068
00> 10178
01> 11092
00> 10168
01> 11075
00> 10139
01> 11003
00> 10140
01> 10987
00> 10168
01> 11050
00> 10184
01> 11094
00> 10177
01> 11088
00> 10147
01> 11018
00> 10144
01> 11003
00> 10165
01> 11046
00> 10176
01> 11091
00> 10166
01> 11081
00> 10142
01> 11007
00> 10144
01> 10999
00> 10153
01> 11043
00> 10169
01> 11070
00> 10171
01> 11066
00> 10151
01> 10998
00> 10147
01> 10966
00> 10156
01> 11018
00> 10176
01> 11089
00> 10168
01> 11081
00> 10143
01> 11009
00> 10140
01> 10991
00> 10161
01> 11043
00> 10181
01> 11089
00> 10173
01> 11079
00> 10140
01> 11003
00> 10140
01> 10986
00> 10164
01> 11035
00> 10185
01> 11084
00> 10178
01> 11083
00> 10140
01> 10999
00> 10116
01> 10963
00> 10135
01> 11011
00> 10161
01> 11049
00> 10154
01> 11049
00> 10126
01> 10991
00> 10121
01> 10979
00> 10143
01> 11026
00> 10171
01> 11074
00> 10174
01> 11073
00> 10146
01> 10997
00> 10133
01> 10963
00> 10151
01> 11016
00> 10176
01> 11076
00> 10175
01> 11078
00> 10141
01> 10999
00> 10129
01> 10974
00> 10143
01> 11020
00> 10154
01> 11059
00> 10153
01> 11059
00> 10135
01> 10999
00> 10135
01> 10984
00> 10153
01> 11045
00> 10169
01> 11093
00> 10168
01> 11083
00> 10143
01> 11009
00> 10131
01> 10983
00> 10152
01> 11038
00> 10174
01> 11093
00> 10169
01> 11086
00> 10141
01> 11003
00> 10139
01> 10985
00> 10169
01> 11059
00> 10185
01> 11099
00> 10178
01> 11086
00> 10139
01> 11000
00> 10131
01> 10974
00> 10154
01> 11036
00> 10173
01> 11092
00> 10169
01> 11086
00> 10144
01> 11019
00> 10136
01> 10993
00> 10153
01> 11041
00> 10176
01> 11094
00> 10173
01> 11093
00> 10149
01> 11026
00> 10146
01> 11003
00> 10161
01> 11058
00> 10168
01> 11096
00> 10165
01> 11095
00> 10135
01> 11012
00> 10131
01> 10986
00> 10150
01> 11047
00> 10176
01> 11106
00> 10173
01> 11114
00> 10148
01> 11038
00> 10141
01> 10999
00> 10157
01> 11049
00> 10171
01> 11093
00> 10176
01> 11098
00> 10146
01> 11018
00> 10134
01> 10988
00> 10152
01> 11044
00> 10161
01> 11085
00> 10164
01> 11083
00> 10136
01> 11013
00> 10128
01> 10997
00> 10146
01> 11049
00> 10161
01> 11097
00> 10150
01> 11091
00> 10121
01> 11012
00> 10114
01> 10984
00> 10137
01> 11044
00> 10166
01> 11096
00> 10166
01> 11089
00> 10129
01> 11013
00> 10114
01> 10983
00> 10135
01> 11024
00> 10153
01> 11057
00> 10148
01> 11053
00> 10125
01> 10989
00> 10104
01> 10965
00> 10119
01> 11003
00> 10135
01> 11046
00> 10142
01> 11054
00> 10118
01> 10996
00> 10108
01> 10961
00> 10131
01> 11003
00> 10145
01> 11038
00> 10142
01> 11034
00> 10111
01> 10964
00> 10093
01> 10934
00> 10106
01> 10985
00> 10123
01> 11037
00> 10132
01> 11046
00> 10104
01> 10975
00> 10094
01> 10952
00> 10114
01> 11016
00> 10130
01> 11065
00> 10124
01> 11056
00> 10103
01> 10976
00> 10104
01> 10936
00> 10121
01> 10995
00> 10141
01> 11064
00> 10149
01> 11076
00> 10128
01> 11007
00> 10110
01> 10958
00> 10119
01> 10998
00> 10138
01> 11048
00> 10144
01> 11052
00> 10119
01> 10983
00> 10105
01> 10958
00> 10127
01> 11012
00> 10148
01> 11068
00> 10144
01> 11071
00> 10113
01> 10997
00> 10106
01> 10957
00> 10119
01> 11001
00> 10129
01> 11043
00> 10135
01> 11051
00> 10114
01> 10996
00> 10108
01> 10965
00> 10123
01> 11001
00> 10139
01> 11043
00> 10143
01> 11053
00> 10121
01> 10989
00> 10109
01> 10959
00> 10121
01> 11001
00> 10137
01> 11048
00> 10140
01> 11048
00> 10121
01> 10990
00> 10115
01> 10963
00> 10133
01> 11008
00> 10149
01> 11048
00> 10151
01> 11057
00> 10131
01> 10999
00> 10113
01> 10958
00> 10128
01> 11004
00> 10138
01> 11049
00> 10136
01> 11048
00> 10121
01> 10991
00> 10109
01> 10965
00> 10121
01> 11009
00> 10142
01> 11043
00> 10144
01> 11043
00> 10114
01> 10974
00> 10103
01> 10941
00> 10124
01> 11006
00> 10144
01> 11070
00> 10153
01> 11088
00> 10131
01> 11023
00> 10119
01> 10996
00> 10133
01> 11044
00> 10153
01> 11082
00> 10161
01> 11087
00> 10138
01> 11028
00> 10124
01> 10991
00> 10139
01> 11024
00> 10150
01> 11061
00> 10142
01> 11065
00> 10125
01> 11009
00> 10122
01> 10974
00> 10138
01> 11008
00> 10157
01> 11048
00> 10155
01> 11064
00> 10129
01> 11020
00> 10127
01> 10994
00> 10144
01> 11027
00> 10155
01> 11061
00> 10158
01> 11070
00> 10128
01> 11004
00> 10119
01> 10961
00> 10146
01> 11004
00> 10166
01> 11054
00> 10167
01> 11059
00> 10141
01> 10996
00> 10139
01> 10974
00> 10156
01> 11013
00> 10163
01> 11048
00> 10166
01> 11069
00> 10148
01> 11025
00> 10134
01> 10984
00> 10149
01> 11011
00> 10162
01> 11046
00> 10163
01> 11058
00> 10134
01> 10998
00> 10123
01> 10954
00> 10148
01> 11005
00> 10168
01> 11050
00> 10163
01> 11048
00> 10143
01> 11000
00> 10134
01> 10976
00> 10152
01> 11019
00> 10169
01> 11057
00> 10161
01> 11053
00> 10131
01> 10982
00> 10121
01> 10946
00> 10134
01> 10993
00> 10161
01> 11053
00> 10168
01> 11064
00> 10136
01> 10997
00> 10116
01> 10945
00> 10126
01> 10978
00> 10142
01> 11033
00> 10147
01> 11044
00> 10131
01> 10986
00> 10121
01> 10950
00> 10139
01> 10999
00> 10158
01> 11048
00> 10157
01> 11054
00> 10130
01> 10995
00> 10124
01> 10968
00> 10141
01> 11011
00> 10163
01> 11061
00> 10165
01> 11074
00> 10141
01> 11006
00> 10119
01> 10962
00> 10119
01> 10992
00> 10140
01> 11038
00> 10160
01> 11061
00> 10146
01> 11008
00> 10130
01> 10963
00> 10141
01> 10997
00> 10158
01> 11040
00> 10159
01> 11049
00> 10137
01> 10990
00> 10118
01> 10936
00> 10131
01> 10974
00> 10150
01> 11033
00> 10162
01> 11063
00> 10143
01> 11006
00> 10126
01> 10956
00> 10134
01> 10973
00> 10149
01> 11011
00> 10149
01> 11033
00> 10122
01> 10983
00> 10106
01> 10948
00> 10121
01> 10981
00> 10147
01> 11025
00> 10156
01> 11037
00> 10133
01> 10972
00> 10117
01> 10920
00> 10127
01> 10965
00> 10141
01> 11026
00> 10149
01> 11051
00> 10128
01> 10993
00> 10112
01> 10951
00> 10129
01> 10986
00> 10144
01> 11024
00> 10144
01> 11025
00> 10126
01> 10974
00> 10112
01> 10936
00> 10117
01> 10969
00> 10140
01> 11016
00> 10148
01> 11045
00> 10121
01> 10991
00> 10104
01> 10939
00> 10116
01> 10969
00> 10139
01> 11016
00> 10139
01> 11028
00> 10120
01> 10978
00> 10118
01> 10929
00> 10126
01> 10966
00> 10136
01> 11022
00> 10138
01> 11044
00> 10114
01> 10987
00> 10103
01> 10943
00> 10119
01> 10981
00> 10142
01> 11027
00> 10146
01> 11030
00> 10122
01> 10978
00> 10103
01> 10926
00> 10112
01> 10961
00> 10131
01> 11016
00> 10140
01> 11031
00> 10110
01> 10970
00> 10091
01> 10923
00> 10118
01> 10968
00> 10138
01> 11020
00> 10144
01> 11034
00> 10121
01> 10978
00> 10102
01> 10932
00> 10114
01> 10971
00> 10136
01> 11027
00> 10145
01> 11043
00> 10120
01> 10987
00> 10100
01> 10939
00> 10115
01> 10973
00> 10130
01> 11008
00> 10138
01> 11028
00> 10118
01> 10981
00> 10113
01> 10935
00> 10126
01> 10957
00> 10126
01> 10996
00> 10124
01> 11016
00> 10103
01> 10980
00> 10091
01> 10935
00> 10111
01> 10963
00> 10130
01> 10999
00> 10133
01> 11013
00> 10114
01> 10968
00> 10096
01> 10929
00> 10104
01> 10963
00> 10123
01> 11006
00> 10121
01> 11011
00> 10103
01> 10965
00> 10089
01> 10923
00> 10112
01> 10967
00> 10128
01> 11015
00> 10127
01> 11023
00> 10106
01> 10982
00> 10096
01> 10933
00> 10097
01> 10938
00> 10101
01> 10972
00> 10107
01> 11001
00> 10098
01> 10965
00> 10089
01> 10922
00> 10106
01> 10958
00> 10124
01> 11004
00> 10124
01> 11016
00> 10100
01> 10970
00> 10089
01> 10925
00> 10106
01> 10962
00> 10121
01> 11008
00> 10127
01> 11024
00> 10103
01> 10973
00> 10079
01> 10924
00> 10097
01> 10956
00> 10117
01> 11000
00> 10123
01> 11016
00> 10105
01> 10952
00> 10085
01> 10894
00> 10099
01> 10938
00> 10118
01> 10998
00> 10133
01> 11023
00> 10106
01> 10958
00> 10078
01> 10904
00> 10104
01> 10953
00> 10135
01> 11025
00> 10146
01> 11049
00> 10122
01> 10993
00> 10100
01> 10937
00> 10118
01> 10960
00> 10129
01> 11004
00> 10128
01> 11040
00> 10118
01> 11008
00> 10103
01> 10966
00> 10106
01> 10994
00> 10123
01> 11043
00> 10134
01> 11064
00> 10109
01> 11011
00> 10090
01> 10946
00> 10110
01> 10966
00> 10125
01> 11008
00> 10124
01> 11031
00> 10103
01> 10979
00> 10085
01> 10931
00> 10099
01> 10960
00> 10117
01> 11003
00> 10129
01> 11043
00> 10097
01> 10981
00> 10078
01> 10914
00> 10103
01> 10945
00> 10124
01> 11006
00> 10131
01> 11034
00> 10110
01> 10983
00> 10093
01> 10924
00> 10105
01> 10957
00> 10115
01> 11008
00> 10119
01> 11021
00> 10109
01> 10984
00> 10098
01> 10945
00> 10111
01> 10971
00> 10125
01> 11003
00> 10134
01> 11023
00> 10108
01> 10974
00> 10080
01> 10922
00> 10096
01> 10963
00> 10119
01> 11011
00> 10126
01> 11043
00> 10107
01> 10987
00> 10093
01> 10922
00> 10099
01> 10941
00> 10119
01> 10994
00> 10131
01> 11023
00> 10099
01> 10968
00> 10083
01> 10915
00> 10106
01> 10950
00> 10128
01> 11001
00> 10136
01> 11029
00> 10109
01> 10981
00> 10093
01> 10919
00> 10103
01> 10943
00> 10116
01> 10989
00> 10126
01> 11014
00> 10114
01> 10979
00> 10101
01> 10934
00> 10113
01> 10963
00> 10126
01> 11005
00> 10137
01> 11023
00> 10123
01> 10975
00> 10103
01> 10911
00> 10107
01> 10924
00> 10116
01> 10983
00> 10119
01> 11011
00> 10094
01> 10963
00> 10076
01> 10903
00> 10089
01> 10932
00> 10109
01> 10984
00> 10116
01> 11004
00> 10093
01> 10951
00> 10083
01> 10898
00> 10086
01> 10918
00> 10099
01> 10971
00> 10104
01> 10991
00> 10093
01> 10945
00> 10077
01> 10881
00> 10093
01> 10903
00> 10109
01> 10957
00> 10112
01> 10994
00> 10101
01> 10959
00> 10088
01> 10906
00> 10097
01> 10934
00> 10117
01> 10988
00> 10119
01> 11006
00> 10103
01> 10957
00> 10084
01> 10901
00> 10091
01> 10928
00> 10114
01> 10973
00> 10124
01> 11000
00> 10108
01> 10961
00> 10079
01> 10899
00> 10084
01> 10919
00> 10100
01> 10966
00> 10121
01> 10993
00> 10116
01> 10954
00> 10099
01> 10898
00> 10099
01> 10925
00> 10120
01> 10978
00> 10136
01> 11010
00> 10124
01> 10968
00> 10102
01> 10907
00> 10111
01> 10938
00> 10123
01> 10984
00> 10128
01> 11003
00> 10103
01> 10954
00> 10089
01> 10901
00> 10101
01> 10929
00> 10125
01> 10980
00> 10134
01> 11004
00> 10113
01> 10956
00> 10097
01> 10891
00> 10109
01> 10916
00> 10123
01> 10978
00> 10127
01> 11004
00> 10108
01> 10963
00> 10083
01> 10904
00> 10093
01> 10907
00> 10113
01> 10956
00> 10125
01> 10996
00> 10106
01> 10963
00> 10077
01> 10905
00> 10081
01> 10930
00> 10103
01> 10976
00> 10123
01> 10994
00> 10108
01> 10954
00> 10085
01> 10896
00> 10093
01> 10917
00> 10114
01> 10964
00> 10124
01> 10996
00> 10105
01> 10962
00> 10088
01> 10906
00> 10104
01> 10932
00> 10119
01> 10984
00> 10121
01> 10998
00> 10102
01> 10961
00> 10088
01> 10907
00> 10101
01> 10927
00> 10113
01> 10976
00> 10114
01> 11012
00> 10100
01> 10981
00> 10083
01> 10925
00> 10098
01> 10943
00> 10117
01> 10994
00> 10130
01> 11025
00> 10111
01> 10984
00> 10092
01> 10921
00> 10105
01> 10950
00> 10124
01> 10998
00> 10138
01> 11025
00> 10122
01> 10982
00> 10099
01> 10923
00> 10101
01> 10951
00> 10115
01> 10996
00> 10120
01> 11025
00> 10104
01> 10986
00> 10088
01> 10928
00> 10101
01> 10951
00> 10122
01> 11008
00> 10132
01> 11038
00> 10116
01> 10989
00> 10100
01> 10927
00> 10117
01> 10963
00> 10131
01> 11021
00> 10142
01> 11052
00> 10121
01> 11004
00> 10102
01> 10944
00> 10112
01> 10964
00> 10129
01> 11008
00> 10134
01> 11031
00> 10113
01> 10996
00> 10084
01> 10934
00> 10093
01> 10957
00> 10121
01> 11011
00> 10132
01> 11036
00> 10122
01> 10994
00> 10101
01> 10919
00> 10109
01> 10946
00> 10125
01> 11001
00> 10134
01> 11034
00> 10117
01> 10992
00> 10090
01> 10929
00> 10096
01> 10947
00> 10112
01> 10997
00> 10113
01> 11020
00> 10090
01> 10980
00> 10079
01> 10924
00> 10092
01> 10943
00> 10116
01> 10984
00> 10129
01> 11011
00> 10115
01> 10980
00> 10085
01> 10916
00> 10079
01> 10929
00> 10101
01> 10981
00> 10115
01> 11017
00> 10095
01> 10972
00> 10082
01> 10909
00> 10099
01> 10920
00> 10111
01> 10968
00> 10118
01> 11016
00> 10099
01> 10988
00> 10071
01> 10916
00> 10084
01> 10932
00> 10112
01> 10985
00> 10119
01> 11012
00> 10104
01> 10982
00> 10081
01> 10917
00> 10089
01> 10933
00> 10117
01> 10999
00> 10133
01> 11032
00> 10109
01> 10978
00> 10084
01> 10908
00> 10094
01> 10926
00> 10103
01> 10961
00> 10109
01> 10996
00> 10109
01> 10989
00> 10091
01> 10932
00> 10081
01> 10938
00> 10098
01> 10982
00> 10103
01> 11000
00> 10089
01> 10969
00> 10067
01> 10903
00> 10079
01> 10915
00> 10097
01> 10963
00> 10108
01> 10992
00> 10096
01> 10959
00> 10072
01> 10888
00> 10080
01> 10904
00> 10095
01> 10960
00> 10091
01> 10988
00> 10073
01> 10946
00> 10059
01> 10876
00> 10069
01> 10888
00> 10101
01> 10956
00> 10116
01> 10988
00> 10092
01> 10945
00> 10063
01> 10879
00> 10068
01> 10888
00> 10091
01> 10948
00> 10098
01> 10975
00> 10071
01> 10934
00> 10054
01> 10873
00> 10058
01> 10879
00> 10078
01> 10930
00> 10086
01> 10964
00> 10070
01> 10930
00> 10056
01> 10866
00> 10073
01> 10891
00> 10094
01> 10951
00> 10104
01> 10988
00> 10089
01> 10951
00> 10060
01> 10883
00> 10069
01> 10893
00> 10090
01> 10943
00> 10104
01> 10974
00> 10091
01> 10935
00> 10072
01> 10873
00> 10081
01> 10880
00> 10093
01> 10930
00> 10102
01> 10958
00> 10094
01> 10941
00> 10076
01> 10894
00> 10079
01> 10897
00> 10095
01> 10939
00> 10106
01> 10962
00> 10092
01> 10920
00> 10073
01> 10869
00> 10077
01> 10889
00> 10093
01> 10939
00> 10105
01> 10975
00> 10103
01> 10952
00> 10069
01> 10871
00> 10074
01> 10885
00> 10094
01> 10936
00> 10103
01> 10966
00> 10086
01> 10931
00> 10071
01> 10869
00> 10069
01> 10874
00> 10089
01> 10926
00> 10111
01> 10973
00> 10092
01> 10942
00> 10067
01> 10877
00> 10073
01> 10876
00> 10094
01> 10914
00> 10113
01> 10954
00> 10097
01> 10938
00> 10072
01> 10870
00> 10073
01> 10872
00> 10090
01> 10927
00> 10101
01> 10967
00> 10085
01> 10931
00> 10059
01> 10860
00> 10072
01> 10876
00> 10089
01> 10917
00> 10098
01> 10941
00> 10090
01> 10915
00> 10063
01> 10854
00> 10070
01> 10874
00> 10090
01> 10921
00> 10103
01> 10943
00> 10077
01> 10902
00> 10043
01> 10832
00> 10056
01> 10845
00> 10084
01> 10914
00> 10108
01> 10954
00> 10084
01> 10912
00> 10052
01> 10833
00> 10063
01> 10854
00> 10075
01> 10910
00> 10080
01> 10931
00> 10067
01> 10897
00> 10051
01> 10836
00> 10062
01> 10858
00> 10079
01> 10915
00> 10098
01> 10951
00> 10093
01> 10929
00> 10079
01> 10871
00> 10095
01> 10887
00> 10123
01> 10938
00> 10135
01> 10976
00> 10140
01> 10961
00> 10131
01> 10930
00> 10123
01> 10938
00> 10142
01> 10999
00> 10181
01> 11069
00> 10172
01> 11063
00> 10133
01> 11020
00> 10154
01> 11075
00> 10201
01> 11174
00> 10232
01> 11251
00> 10246
01> 11289
00> 10258
01> 11288
00> 10284
01> 11355
00> 10323
01> 11454
00> 10347
01> 11506
00> 10346
01> 11497
00> 10329
01> 11444
00> 10348
01> 11484
00> 10376
01> 11559
00> 10373
01> 11583
00> 10354
01> 11554
00> 10334
01> 11473
00> 10332
01> 11459
00> 10339
01> 11499
00> 10336
01> 11509
00> 10309
01> 11459
00> 10272
01> 11366
00> 10267
01> 11347
00> 10263
01> 11369
00> 10270
01> 11387
00> 10268
01> 11355
00> 10233
01> 11267
00> 10229
01> 11247
00> 10254
01> 11296
00> 10260
01> 11315
00> 10243
01> 11282
00> 10210
01> 11205
00> 10202
01> 11189
00> 10214
01> 11226
00> 10228
01> 11258
00> 10216
01> 11237
00> 10196
01> 11174
00> 10201
01> 11183
00> 10214
01> 11218
00> 10204
01> 11222
00> 10187
01> 11186
00> 10169
01> 11132
00> 10189
01> 11142
00> 10198
01> 11171
00> 10206
01> 11205
00> 10189
01> 11179
00> 10164
01> 11111
00> 10168
01> 11114
00> 10176
01> 11148
00> 10182
01> 11166
00> 10184
01> 11147
00> 10153
01> 11079
00> 10151
01> 11079
00> 10169
01> 11120
00> 10173
01> 11138
00> 10159
01> 11105
00> 10132
01> 11031
00> 10129
01> 11028
00> 10138
01> 11075
00> 10161
01> 11123
00> 10159
01> 11110
00> 10131
01> 11029
00> 10119
01> 11008
00> 10126
01> 11034
00> 10137
01> 11069
00> 10133
01> 11059
00> 10109
01> 10991
00> 10124
01> 11000
00> 10142
01> 11051
00> 10147
01> 11077
00> 10135
01> 11044
00> 10110
01> 10971
00> 10119
01> 10979
00> 10124
01> 11027
00> 10131
01> 11054
00> 10124
01> 11030
00> 10100
01> 10954
00> 10101
01> 10951
00> 10113
01> 10998
00> 10128
01> 11042
00> 10126
01> 11037
00> 10097
01> 10963
00> 10105
01> 10960
00> 10125
01> 11008
00> 10127
01> 11037
00> 10116
01> 11003
00> 10094
01> 10930
00> 10094
01> 10928
00> 10121
01> 10983
00> 10141
01> 11025
00> 10125
01> 11008
00> 10098
01> 10942
00> 10095
01> 10922
00> 10114
01> 10966
00> 10138
01> 11018
00> 10131
01> 11009
00> 10111
01> 10948
00> 10101
01> 10941
00> 10114
01> 10989
00> 10119
01> 11017
00> 10112
01> 10994
00> 10088
01> 10921
00> 10089
01> 10922
00> 10103
01> 10974
00> 10114
01> 11007
00> 10099
01> 10988
00> 10072
01> 10924
00> 10078
01> 10931
00> 10098
01> 10985
00> 10110
01> 11010
00> 10097
01> 10980
00> 10073
01> 10911
00> 10084
01> 10924
00> 10112
01> 10979
00> 10124
01> 11013
00> 10114
01> 10986
00> 10091
01> 10911
00> 10084
01> 10902
00> 10099
01> 10958
00> 10125
01> 11011
00> 10116
01> 10995
00> 10086
01> 10918
00> 10083
01> 10903
00> 10104
01> 10956
00> 10115
01> 10988
00> 10100
01> 10976
00> 10075
01> 10898
00> 10079
01> 10890
00> 10097
01> 10943
00> 10110
01> 10987
00> 10104
01> 10971
00> 10079
01> 10908
00> 10080
01> 10914
00> 10091
01> 10958
00> 10095
01> 10985
00> 10092
01> 10968
00> 10074
01> 10899
00> 10074
01> 10894
00> 10094
01> 10942
00> 10117
01> 10985
00> 10117
01> 10974
00> 10098
01> 10906
00> 10091
01> 10887
00> 10093
01> 10920
00> 10097
01> 10965
00> 10084
01> 10955
00> 10059
01> 10884
00> 10064
01> 10891
00> 10089
01> 10951
00> 10097
01> 10972
00> 10088
01> 10950
00> 10061
01> 10883
00> 10059
01> 10881
00> 10082
01> 10936
00> 10093
01> 10971
00> 10086
01> 10963
00> 10069
01> 10901
00> 10076
01> 10888
00> 10086
01> 10933
00> 10100
01> 10973
00> 10091
01> 10947
00> 10063
01> 10868
00> 10063
01> 10874
00> 10083
01> 10929
00> 10094
01> 10959
00> 10088
01> 10943
00> 10075
01> 10884
00> 10082
01> 10882
00> 10097
01> 10932
00> 10101
01> 10958
00> 10085
01> 10938
00> 10056
01> 10868
00> 10055
01> 10864
00> 10087
01> 10929
00> 10112
01> 10973
00> 10104
01> 10953
00> 10074
01> 10887
00> 10071
01> 10880
00> 10082
01> 10926
00> 10103
01> 10961
00> 10108
01> 10948
00> 10089
01> 10881
00> 10089
01> 10876
00> 10098
01> 10928
00> 10104
01> 10961
00> 10103
01> 10951
00> 10079
01> 10881
00> 10072
01> 10867
00> 10085
01> 10913
00> 10097
01> 10954
00> 10092
01> 10951
00> 10071
01> 10887
00> 10073
01> 10877
00> 10088
01> 10915
00> 10101
01> 10953
00> 10099
01> 10952
00> 10074
01> 10893
00> 10073
01> 10884
00> 10089
01> 10927
00> 10108
01> 10971
00> 10096
01> 10956
00> 10066
01> 10875
00> 10069
01> 10873
00> 10090

00> 10109
01> 10973
00> 10103
01> 10958
00> 10074
01> 10880
00> 10071
01> 10867
00> 10091
01> 10919
00> 10110
01> 10958
00> 10105
01> 10952
00> 10078
01> 10885
00> 10076
01> 10871
00> 10088
01> 10913
00> 10108
01> 10957
00> 10108
01> 10946
00> 10079
01> 10865
00> 10074
01> 10850
00> 10096
01> 10906
00> 10098
01> 10938
00> 10099
01> 10934
00> 10083
01> 10875
00> 10078
01> 10858
00> 10096
01> 10906
00> 10112
01> 10953
00> 10103
01> 10943
00> 10076
01> 10874
00> 10072
01> 10852
00> 10092
01> 10915
00> 10109
01> 10955
00> 10103
01> 10931
00> 10073
01> 10862
00> 10075
01> 10851
00> 10100
01> 10899
00> 10110
01> 10936
00> 10100
01> 10925
00> 10066
01> 10854
00> 10065
01> 10847
00> 10086
01> 10889
00> 10103
01> 10921
00> 10104
01> 10919
00> 10078
01> 10861
00> 10072
01> 10853
00> 10088
01> 10903
00> 10104
01> 10943
00> 10101
01> 10938
00> 10079
01> 10860
00> 10073
01> 10836
00> 10094
01> 10893
00> 10118
01> 10945
00> 10111
01> 10934
00> 10070
01> 10853
00> 10053
01> 10818
00> 10081
01> 10876
00> 10105
01> 10933
00> 10103
01> 10935
00> 10074
01> 10871
00> 10064
01> 10844
00> 10078
01> 10888
00> 10102
01> 10929
00> 10099
01> 10919
00> 10070
01> 10851
00> 10068
01> 10834
00> 10083
01> 10881
00> 10093
01> 10913
00> 10084
01> 10906
00> 10058
01> 10841
00> 10063
01> 10827
00> 10080
01> 10873
00> 10093
01> 10911
00> 10094
01> 10919
00> 10069
01> 10854
00> 10068
01> 10832
00> 10086
01> 10876
00> 10101
01> 10915
00> 10099
01> 10913
00> 10055
01> 10836
00> 10056
01> 10824
00> 10088
01> 10891
00> 10103
01> 10921
00> 10103
01> 10909
00> 10073
01> 10841
00> 10068
01> 10834
00> 10089
01> 10898
00> 10109
01> 10950
00> 10108
01> 10939
00> 10081
01> 10854
00> 10066
01> 10823
00> 10083
01> 10883
00> 10102
01> 10944
00> 10105
01> 10944
00> 10080
01> 10857
00> 10060
01> 10818
00> 10075
01> 10868
00> 10096
01> 10920
00> 10093
01> 10919
00> 10075
01> 10857
00> 10075
01> 10856
00> 10090
01> 10896
00> 10103
01> 10918
00> 10104
01> 10904
00> 10068
01> 10825
00> 10056
01> 10810
00> 10078
01> 10872
00> 10092
01> 10918
00> 10086
01> 10910
00> 10069
01> 10841
00> 10073
01> 10821
00> 10088
01> 10869
00> 10102
01> 10908
00> 10098
01> 10901
00> 10074
01> 10824
00> 10063
01> 10808
00> 10081
01> 10863
00> 10098
01> 10911
00> 10096
01> 10918
00> 10068
01> 10847
00> 10055
01> 10816
00> 10078
01> 10864
00> 10099
01> 10909
00> 10093
01> 10899
00> 10057
01> 10817
00> 10051
01> 10799
00> 10071
01> 10847
00> 10081
01> 10881
00> 10083
01> 10878
00> 10054
01> 10811
00> 10050
01> 10804
00> 10068
01> 10849
00> 10077
01> 10888
00> 10081
01> 10892
00> 10059
01> 10828
00> 10056
01> 10798
00> 10068
01> 10839
00> 10079
01> 10884
00> 10076
01> 10886
00> 10047
01> 10816
00> 10050
01> 10799
00> 10065
01> 10835
00> 10076
01> 10875
00> 10078
01> 10882
00> 10048
01> 10815
00> 10039
01> 10779
00> 10061
01> 10823
00> 10081
01> 10866
00> 10079
01> 10873
00> 10060
01> 10816
00> 10060
01> 10796
00> 10075
01> 10839
00> 10090
01> 10882
00> 10094
01> 10889
00> 10067
01> 10829
00> 10062
01> 10805
00> 10080
01> 10843
00> 10087
01> 10874
00> 10083
01> 10871
00> 10057
01> 10796
00> 10057
01> 10761
00> 10074
01> 10801
00> 10087
01> 10851
00> 10092
01> 10863
00> 10062
01> 10789
00> 10053
01> 10759
00> 10079
01> 10818
00> 10098
01> 10868
00> 10083
01> 10854
00> 10059
01> 10770
00> 10049
01> 10729
00> 10066
01> 10778
00> 10084
01> 10827
00> 10085
01> 10834
00> 10056
01> 10773
00> 10043
01> 10753
00> 10063
01> 10798
00> 10078
01> 10830
00> 10074
01> 10816
00> 10053
01> 10752
00> 10041
01> 10726
00> 10057
01> 10777
00> 10075
01> 10828
00> 10077
01> 10835
00> 10065
01> 10779
00> 10059
01> 10756
00> 10070
01> 10788
00> 10084
01> 10816
00> 10076
01> 10811
00> 10046
01> 10744
00> 10048
01> 10732
00> 10074
01> 10786
00> 10094
01> 10823
00> 10087
01> 10823
00> 10056
01> 10749
00> 10044
01> 10712
00> 10067
01> 10768
00> 10092
01> 10831
00> 10091
01> 10839
00> 10061
01> 10768
00> 10050
01> 10733
00> 10062
01> 10769
00> 10075
01> 10805
00> 10084
01> 10815
00> 10069
01> 10754
00> 10058
01> 10723
00> 10064
01> 10773
00> 10076
01> 10822
00> 10082
01> 10823
00> 10064
01> 10763
00> 10063
01> 10744
00> 10079
01> 10792
00> 10090
01> 10833
00> 10089
01> 10829
00> 10073
01> 10766
00> 10066
01> 10736
00> 10080
01> 10782
00> 10097
01> 10833
00> 10099
01> 10834
00> 10071
01> 10762
00> 10059
01> 10729
00> 10078
01> 10779
00> 10092
01> 10826
00> 10093
01> 10827
00> 10072
01> 10772
00> 10057
01> 10744
00> 10067
01> 10787
00> 10089
01> 10834
00> 10098
01> 10846
00> 10078
01> 10787
00> 10073
01> 10755
00> 10085
01> 10785
00> 10103
01> 10826
00> 10109
01> 10837
00> 10079
01> 10764
00> 10067
01> 10741
00> 10081
01> 10788
00> 10098
01> 10831
00> 10101
01> 10841
00> 10072
01> 10774
00> 10058
01> 10729
00> 10077
01> 10768
00> 10091
01> 10819
00> 10081
01> 10833
00> 10053
01> 10775
00> 10055
01> 10758
00> 10074
01> 10800
00> 10096
01> 10846
00> 10102
01> 10858
00> 10079
01> 10786
00> 10066
01> 10743
00> 10073
01> 10779
00> 10094
01> 10827
00> 10098
01> 10844
00> 10077
01> 10783
00> 10066
01> 10743
00> 10089
01> 10786
00> 10112
01> 10844
00> 10114
01> 10853
00> 10093
01> 10789
00> 10084
01> 10754
00> 10095
01> 10800
00> 10108
01> 10844
00> 10108
01> 10842
00> 10089
01> 10781
00> 10084
01> 10758
00> 10100
01> 10801
00> 10113
01> 10839
00> 10119
01> 10853
00> 10101
01> 10794
00> 10091
01> 10753
00> 10094
01> 10798
00> 10121
01> 10854
00> 10125
01> 10867
00> 10096
01> 10803
00> 10090
01> 10778
00> 10106
01> 10820
00> 10105
01> 10851
00> 10101
01> 10846
00> 10089
01> 10791
00> 10083
01> 10763
00> 10096
01> 10807
00> 10111
01> 10854
00> 10113
01> 10859
00> 10088
01> 10789
00> 10074
01> 10749
00> 10092
01> 10793
00> 10108
01> 10839
00> 10113
01> 10852
00> 10091
01> 10795
00> 10078
01> 10766
00> 10093
01> 10807
00> 10109
01> 10849
00> 10116
01> 10859
00> 10094
01> 10802
00> 10084
01> 10765
00> 10096
01> 10801
00> 10109
01> 10852
00> 10109
01> 10868
00> 10083
01> 10809
00> 10083
01> 10779
00> 10104
01> 10825
00> 10121
01> 10867
00> 10118
01> 10876
00> 10101
01> 10819
00> 10078
01> 10770
00> 10089
01> 10807
00> 10108
01> 10856
00> 10113
01> 10863
00> 10082
01> 10796
00> 10072
01> 10756
00> 10094
01> 10805
00> 10121
01> 10858
00> 10125
01> 10874
00> 10102
01> 10820
00> 10096
01> 10781
00> 10117
01> 10830
00> 10130
01> 10863
00> 10126
01> 10869
00> 10098
01> 10819
00> 10089
01> 10790
00> 10121
01> 10837
00> 10144
01> 10879
00> 10139
01> 10880
00> 10104
01> 10812
00> 10078
01> 10764
00> 10089
01> 10806
00> 10109
01> 10854
00> 10112
01> 10862
00> 10094
01> 10798
00> 10088
01> 10756
00> 10103
01> 10793
00> 10119
01> 10848
00> 10118
01> 10861
00> 10099
01> 10803
00> 10075
01> 10749
00> 10076
01> 10778
00> 10100
01> 10834
00> 10108
01> 10851
00> 10094
01> 10800
00> 10084
01> 10760
00> 10096
01> 10799
00> 10113
01> 10844
00> 10115
01> 10849
00> 10095
01> 10790
00> 10081
01> 10746
00> 10101
01> 10797
00> 10124
01> 10856
00> 10128
01> 10873
00> 10101
01> 10812
00> 10092
01> 10776
00> 10113
01> 10823
00> 10128
01> 10871
00> 10125
01> 10872
00> 10098
01> 10796
00> 10080
01> 10749
00> 10103
01> 10798
00> 10125
01> 10860
00> 10132
01> 10884
00> 10101
01> 10817
00> 10077
01> 10768
00> 10091
01> 10796
00> 10118
01> 10856
00> 10131
01> 10882
00> 10112
01> 10823
00> 10096
01> 10776
00> 10112
01> 10816
00> 10134
01> 10870
00> 10139
01> 10882
00> 10111
01> 10819
00> 10097
01> 10778
00> 10118
01> 10826
00> 10139
01> 10881
00> 10136
01> 10889
00> 10106
01> 10823
00> 10100
01> 10789
00> 10118
01> 10838
00> 10143
01> 10881
00> 10144
01> 10889
00> 10113
01> 10827
00> 10092
01> 10785
00> 10110
01> 10834
00> 10137
01> 10892
00> 10151
01> 10915
00> 10126
01> 10858
00> 10106
01> 10803
00> 10114
01> 10828
00> 10136
01> 10878
00> 10150
01> 10906
00> 10128
01> 10861
00> 10113
01> 10825
00> 10118
01> 10862
00> 10130
01> 10906
00> 10148
01> 10915
00> 10124
01> 10846
00> 10114
01> 10800
00> 10136
01> 10849
00> 10154
01> 10909
00> 10151
01> 10919
00> 10129
01> 10859
00> 10116
01> 10819
00> 10130
01> 10854
00> 10150
01> 10904
00> 10152
01> 10913
00> 10131
01> 10856
00> 10116
01> 10812
00> 10127
01> 10848
00> 10146
01> 10903
00> 10150
01> 10916
00> 10128
01> 10857
00> 10108
01> 10809
00> 10125
01> 10848
00> 10141
01> 10889
00> 10149
01> 10893
00> 10136
01> 10844
00> 10121
01> 10805
00> 10137
01> 10843
00> 10156
01> 10896
00> 10159
01> 10921
00> 10128
01> 10850
00> 10110
01> 10792
00> 10126
01> 10824
00> 10137
01> 10861
00> 10140
01> 10869
00> 10114
01> 10799
00> 10084
01> 10736
00> 10082
01> 10752
00> 10094
01> 10788
00> 10104
01> 10796
00> 10082
01> 10750
00> 10063
01> 10706
00> 10080
01> 10742
00> 10094
01> 10791
00> 10096
01> 10799
00> 10071
01> 10738
00> 10064
01> 10699
00> 10081
01> 10738
00> 10096
01> 10788
00> 10093
01> 10801
00> 10079
01> 10743
00> 10062
01> 10684
00> 10068
01> 10716
00> 10098
01> 10784
00> 10105
01> 10808
00> 10076
01> 10750
00> 10072
01> 10714
00> 10098
01> 10754
00> 10101
01> 10786
00> 10096
01> 10795
00> 10083
01> 10750
00> 10071
01> 10715
00> 10084
01> 10755
00> 10105
01> 10813
00> 10110
01> 10831
00> 10088
01> 10770
00> 10076
01> 10717
00> 10093
01> 10754
00> 10104
01> 10801
00> 10111
01> 10810
00> 10100
01> 10761
00> 10083
01> 10713
00> 10094
01> 10744
00> 10116
01> 10794
00> 10122
01> 10813
00> 10088
01> 10759
00> 10067
01> 10714
00> 10092
01> 10756
00> 10114
01> 10804
00> 10118
01> 10819
00> 10109
01> 10774
00> 10095
01> 10724
00> 10094
01> 10754
00> 10104
01> 10796
00> 10119
01> 10817
00> 10106
01> 10762
00> 10089
01> 10705
00> 10098
01> 10743
00> 10112
01> 10806
00> 10116
01> 10824
00> 10105
01> 10773
00> 10092
01> 10733
00> 10104
01> 10769
00> 10114
01> 10808
00> 10121
01> 10818
00> 10097
01> 10758
00> 10079
01> 10707
00> 10091
01> 10747
00> 10118
01> 10813
00> 10131
01> 10834
00> 10106
01> 10776
00> 10090
01> 10727
00> 10108
01> 10773
00> 10131
01> 10823
00> 10133
01> 10831
00> 10102
01> 10771
00> 10079
01> 10718
00> 10094
01> 10746
00> 10126
01> 10814
00> 10135
01> 10836
00> 10116
01> 10779
00> 10108
01> 10734
00> 10129
01> 10768
00> 10146
01> 10816
00> 10149
01> 10842
00> 10119
01> 10788
00> 10104
01> 10734
00> 10116
01> 10761
00> 10134
01> 10808
00> 10141
01> 10828
00> 10119
01> 10782
00> 10096
01> 10735
00> 10118
01> 10774
00> 10136
01> 10821
00> 10139
01> 10834
00> 10117
01> 10784
00> 10097
01> 10732
00> 10116
01> 10771
00> 10135
01> 10825
00> 10137
01> 10838
00> 10114
01> 10787
00> 10104
01> 10743
00> 10113
01> 10774
00> 10137
01> 10828
00> 10147
01> 10854
00> 10124
01> 10812
00> 10119
01> 10758
00> 10131
01> 10783
00> 10144
01> 10827
00> 10148
01> 10848
00> 10137
01> 10814
00> 10131
01> 10768
00> 10136
01> 10790
00> 10146
01> 10831
00> 10151
01> 10851
00> 10133
01> 10805
00> 10112
01> 10758
00> 10131
01> 10798
00> 10161
01> 10854
00> 10161
01> 10869
00> 10129
01> 10807
00> 10106
01> 10748
00> 10121
01> 10792
00> 10154
01> 10857
00> 10164
01> 10886
00> 10143
01> 10824
00> 10124
01> 10756
00> 10138
01> 10790
00> 10156
01> 10849
00> 10166
01> 10871
00> 10153
01> 10821
00> 10123
01> 10764
00> 10131
01> 10794
00> 10156
01> 10849
00> 10169
01> 10874
00> 10151
01> 10828
00> 10127
01> 10763
00> 10139
01> 10797
00> 10153
01> 10843
00> 10159
01> 10861
00> 10145
01> 10822
00> 10124
01> 10764
00> 10139
01> 10795
00> 10154
01> 10853
00> 10159
01> 10861
00> 10145
01> 10810
00> 10129
01> 10763
00> 10146
01> 10803
00> 10161
01> 10856
00> 10154
01> 10868
00> 10136
01> 10812
00> 10121
01> 10756
00> 10128
01> 10783
00> 10147
01> 10838
00> 10160
01> 10860
00> 10144
01> 10810
00> 10129
01> 10758
00> 10136
01> 10791
00> 10151
01> 10842
00> 10167
01> 10863
00> 10149
01> 10817
00> 10117
01> 10746
00> 10129
01> 10772
00> 10156
01> 10840
00> 10171
01> 10869
00> 10147
01> 10808
00> 10128
01> 10756
00> 10143
01> 10784
00> 10154
01> 10824
00> 10154
01> 10850
00> 10146
01> 10817
00> 10133
01> 10749
00> 10133
01> 10759
00> 10141
01> 10794
00> 10151
01> 10818
00> 10139
01> 10778
00> 10124
01> 10723
00> 10134
01> 10749
00> 10151
01> 10803
00> 10153
01> 10825
00> 10136
01> 10780
00> 10121
01> 10723
00> 10134
01> 10754
00> 10156
01> 10806
00> 10159
01> 10821
00> 10138
01> 10776
00> 10118
01> 10721
00> 10130
01> 10747
00> 10141
01> 10796
00> 10153
01> 10821
00> 10139
01> 10784
00> 10119
01> 10724
00> 10124
01> 10750
00> 10151
01> 10813
00> 10168
01> 10837
00> 10148
01> 10788
00> 10128
01> 10731
00> 10139
01> 10758
00> 10154
01> 10812
00> 10168
01> 10839
00> 10151
01> 10793
00> 10121
01> 10731
00> 10128
01> 10766
00> 10156
01> 10820
00> 10168
01> 10839
00> 10158
01> 10798
00> 10137
01> 10745
00> 10143
01> 10771
00> 10156
01> 10821
00> 10165
01> 10844
00> 10154
01> 10806
00> 10136
01> 10741
00> 10135
01> 10753
00> 10148
01> 10804
00> 10171
01> 10848
00> 10157
01> 10812
00> 10128
01> 10740
00> 10141
01> 10764
00> 10173
01> 10824
00> 10186
01> 10851
00> 10164
01> 10801
00> 10137
01> 10739
00> 10143
01> 10759
00> 10164
01> 10814
00> 10179
01> 10849
00> 10166
01> 10809
00> 10158
01> 10749
00> 10176
01> 10768
00> 10171
01> 10805
00> 10169
01> 10820
00> 10150
01> 10768
00> 10125
01> 10701
00> 10139
01> 10726
00> 10149
01> 10773
00> 10150
01> 10793
00> 10132
01> 10749
00> 10111
01> 10692
00> 10118
01> 10716
00> 10132
01> 10760
00> 10143
01> 10776
00> 10129
01> 10734
00> 10109
01> 10685
00> 10120
01> 10713
00> 10139
01> 10761
00> 10143
01> 10776
00> 10122
01> 10729
00> 10101
01> 10668
00> 10116
01> 10696
00> 10131
01> 10746
00> 10129
01> 10771
00> 10118
01> 10738
00> 10104
01> 10684
00> 10119
01> 10709
00> 10136
01> 10742
00> 10148
01> 10771
00> 10131
01> 10741
00> 10108
01> 10682
00> 10123
01> 10715
00> 10142
01> 10772
00> 10149
01> 10789
00> 10125
01> 10731
00> 10104
01> 10666
00> 10111
01> 10701
00> 10135
01> 10763
00> 10159
01> 10798
00> 10149
01> 10759
00> 10129
01> 10694
00> 10141
01> 10716
00> 10158
01> 10766
00> 10161
01> 10786
00> 10147
01> 10746
00> 10123
01> 10692
00> 10131
01> 10714
00> 10142
01> 10756
00> 10157
01> 10788
00> 10145
01> 10754
00> 10119
01> 10686
00> 10131
01> 10709
00> 10149
01> 10762
00> 10163
01> 10789
00> 10149
01> 10751
00> 10122
01> 10689
00> 10117
01> 10706
00> 10134
01> 10756
00> 10146
01> 10790
00> 10127
01> 10741
00> 10109
01> 10678
00> 10128
01> 10704
00> 10151
01> 10758
00> 10154
01> 10783
00> 10142
01> 10747
00> 10127
01> 10686
00> 10131
01> 10709
00> 10145
01> 10761
00> 10153
01> 10781
00> 10138
01> 10737
00> 10111
01> 10676
00> 10123
01> 10706
00> 10146
01> 10773
00> 10153
01> 10801
00> 10140
01> 10762
00> 10127
01> 10699
00> 10128
01> 10720
00> 10138
01> 10766
00> 10153
01> 10788
00> 10141
01> 10749
00> 10117
01> 10693
00> 10123
01> 10722
00> 10144
01> 10783
00> 10158
01> 10814
00> 10144
01> 10769
00> 10113
01> 10688
00> 10118
01> 10700
00> 10144
01> 10763
00> 10162
01> 10804
00> 10152
01> 10780
00> 10126
01> 10711
00> 10131
01> 10724
00> 10153
01> 10783
00> 10166
01> 10816
00> 10148
01> 10774
00> 10129
01> 10712
00> 10138
01> 10742
00> 10155
01> 10797
00> 10166
01> 10823
00> 10158
01> 10779
00> 10131
01> 10704
00> 10139
01> 10724
00> 10155
01> 10781
00> 10158
01> 10809
00> 10137
01> 10773
00> 10121
01> 10717
00> 10129
01> 10733
00> 10147
01> 10789
00> 10156
01> 10816
00> 10137
01> 10774
00> 10116
01> 10709
00> 10120
01> 10723
00> 10144
01> 10779
00> 10171
01> 10811
00> 10158
01> 10783
00> 10131
01> 10726
00> 10132
01> 10733
00> 10146
01> 10776
00> 10159
01> 10811
00> 10144
01> 10776
00> 10118
01> 10698
00> 10123
01> 10711
00> 10139
01> 10764
00> 10154
01> 10803
00> 10141
01> 10771
00> 10114
01> 10704
00> 10129
01> 10726
00> 10144
01> 10778
00> 10148
01> 10801
00> 10137
01> 10764
00> 10117
01> 10705
00> 10129
01> 10730
00> 10146
01> 10776
00> 10151
01> 10803
00> 10133
01> 10771
00> 10118
01> 10707
00> 10127
01> 10719
00> 10151
01> 10781
00> 10162
01> 10826
00> 10154
01> 10791
00> 10133
01> 10711
00> 10131
01> 10712
00> 10139
01> 10759
00> 10156
01> 10792
00> 10154
01> 10769
00> 10130
01> 10704
00> 10124
01> 10711
00> 10144
01> 10767
00> 10156
01> 10800
00> 10151
01> 10778
00> 10130
01> 10713
00> 10130
01> 10718
00> 10149
01> 10772
00> 10156
01> 10801
00> 10138
01> 10757
00> 10117
01> 10693
00> 10126
01> 10718
00> 10151
01> 10775
00> 10161
01> 10797
00> 10144
01> 10766
00> 10119
01> 10697
00> 10124
01> 10704
00> 10147
01> 10751
00> 10156
01> 10791
00> 10141
01> 10761
00> 10121
01> 10697
00> 10126
01> 10710
00> 10141
01> 10759
00> 10156
01> 10801
00> 10141
01> 10769
00> 10116
01> 10697
00> 10121
01> 10707
00> 10142
01> 10759
00> 10154
01> 10790
00> 10150
01> 10777
00> 10124
01> 10707
00> 10121
01> 10707
00> 10132
01> 10754
00> 10144
01> 10793
00> 10141
01> 10778
00> 10119
01> 10709
00> 10129
01> 10725
00> 10152
01> 10776
00> 10159
01> 10799
00> 10141
01> 10772
00> 10111
01> 10701
00> 10123
01> 10714
00> 10146
01> 10771
00> 10162
01> 10804
00> 10144
01> 10776
00> 10116
01> 10704
00> 10132
01> 10720
00> 10154
01> 10777
00> 10160
01> 10811
00> 10146
01> 10787
00> 10119
01> 10719
00> 10122
01> 10725
00> 10141
01> 10781
00> 10162
01> 10823
00> 10147
01> 10798
00> 10124
01> 10726
00> 10129
01> 10734
00> 10143
01> 10776
00> 10154
01> 10806
00> 10156
01> 10799
00> 10134
01> 10738
00> 10139
01> 10745
00> 10157
01> 10798
00> 10168
01> 10834
00> 10155
01> 10807
00> 10128
01> 10738
00> 10134
01> 10745
00> 10161
01> 10802
00> 10166
01> 10830
00> 10155
01> 10806
00> 10138
01> 10748
00> 10151
01> 10762
00> 10166
01> 10813
00> 10176
01> 10839
00> 10166
01> 10811
00> 10148
01> 10747
00> 10149
01> 10749
00> 10165
01> 10798
00> 10174
01> 10836
00> 10169
01> 10810
00> 10151
01> 10745
00> 10148
01> 10748
00> 10165
01> 10799
00> 10174
01> 10828
00> 10164
01> 10794
00> 10140
01> 10729
00> 10144
01> 10737
00> 10160
01> 10786
00> 10173
01> 10816
00> 10172
01> 10799
00> 10150
01> 10746
00> 10150
01> 10754
00> 10171
01> 10802
00> 10187
01> 10834
00> 10175
01> 10809
00> 10153
01> 10746
00> 10156
01> 10759
00> 10174
01> 10811
00> 10183
01> 10836
00> 10168
01> 10806
00> 10142
01> 10733
00> 10142
01> 10739
00> 10165
01> 10794
00> 10181
01> 10829
00> 10170
01> 10808
00> 10139
01> 10738
00> 10139
01> 10740
00> 10158
01> 10792
00> 10176
01> 10828
00> 10157
01> 10798
00> 10135
01> 10730
00> 10140
01> 10723
00> 10157
01> 10771
00> 10176
01> 10828
00> 10169
01> 10809
00> 10148
01> 10743
00> 10146
01> 10744
00> 10159
01> 10797
00> 10171
01> 10827
00> 10161
01> 10803
00> 10138
01> 10736
00> 10149
01> 10746
00> 10163
01> 10794
00> 10172
01> 10828
00> 10164
01> 10814
00> 10138
01> 10746
00> 10138
01> 10746
00> 10158
01> 10796
00> 10177
01> 10833
00> 10167
01> 10804
00> 10133
01> 10736
00> 10135
01> 10731
00> 10154
01> 10768
00> 10158
01> 10791
00> 10147
01> 10766
00> 10130
01> 10699
00> 10129
01> 10700
00> 10143
01> 10752
00> 10153
01> 10784
00> 10143
01> 10764
00> 10119
01> 10697
00> 10133
01> 10707
00> 10157
01> 10764
00> 10157
01> 10794
00> 10144
01> 10766
00> 10123
01> 10695
00> 10128
01> 10703
00> 10148
01> 10763
00> 10162
01> 10796
00> 10156
01> 10779
00> 10128
01> 10713
00> 10118
01> 10703
00> 10133
01> 10743
00> 10164
01> 10783
00> 10164
01> 10773
00> 10139
01> 10711
00> 10140
01> 10713
00> 10153
01> 10760
00> 10160
01> 10785
00> 10146
01> 10762
00> 10123
01> 10695
00> 10139
01> 10708
00> 10161
01> 10760
00> 10168
01> 10791
00> 10159
01> 10769
00> 10124
01> 10691
00> 10120
01> 10697
00> 10150
01> 10761
00> 10163
01> 10799
00> 10159
01> 10788
00> 10140
01> 10722
00> 10139
01> 10712
00> 10151
01> 10762
00> 10163
01> 10795
00> 10156
01> 10775
00> 10126
01> 10704
00> 10124
01> 10706
00> 10144
01> 10753
00> 10163
01> 10789
00> 10158
01> 10775
00> 10138
01> 10706
00> 10139
01> 10704
00> 10154
01> 10758
00> 10165
01> 10799
00> 10158
01> 10778
00> 10136
01> 10708
00> 10136
01> 10710
00> 10155
01> 10765
00> 10171
01> 10802
00> 10166
01> 10791
00> 10151
01> 10716
00> 10168
01> 10716
00> 10176
01> 10774
00> 10168
01> 10813
00> 10159
01> 10803
00> 10136
01> 10743
00> 10141
01> 10755
00> 10160
01> 10813
00> 10168
01> 10846
00> 10158
01> 10819
00> 10136
01> 10743
00> 10138
01> 10743
00> 10164
01> 10798
00> 10178
01> 10827
00> 10163
01> 10806
00> 10135
01> 10734
00> 10134
01> 10724
00> 10150
01> 10761
00> 10167
01> 10809
00> 10160
01> 10798
00> 10133
01> 10721
00> 10136
01> 10714
00> 10154
01> 10767
00> 10164
01> 10796
00> 10151
01> 10775
00> 10126
01> 10714
00> 10129
01> 10709
00> 10146
01> 10761
00> 10166
01> 10807
00> 10164
01> 10796
00> 10140
01> 10727
00> 10133
01> 10711
00> 10144
01> 10756
00> 10161
01> 10803
00> 10154
01> 10782
00> 10124
01> 10703
00> 10129
01> 10705
00> 10152
01> 10766
00> 10165
01> 10809
00> 10152
01> 10791
00> 10124
01> 10714
00> 10129
01> 10703
00> 10149
01> 10754
00> 10162
01> 10797
00> 10154
01> 10789
00> 10125
01> 10718
00> 10130
01> 10719
00> 10148
01> 10762
00> 10152
01> 10793
00> 10146
01> 10786
00> 10126
01> 10712
00> 10126
01> 10698
00> 10147
01> 10759
00> 10158
01> 10797
00> 10149
01> 10781
00> 10119
01> 10708
00> 10121
01> 10706
00> 10139
01> 10763
00> 10154
01> 10803
00> 10152
01> 10792
00> 10122
01> 10718
00> 10114
01> 10708
00> 10134
01> 10763
00> 10152
01> 10804
00> 10144
01> 10792
00> 10116
01> 10719
00> 10108
01> 10708
00> 10120
01> 10755
00> 10133
01> 10790
00> 10124
01> 10764
00> 10107
01> 10703
00> 10109
01> 10697
00> 10131
01> 10753
00> 10146
01> 10798
00> 10137
01> 10784
00> 10111
01> 10716
00> 10110
01> 10708
00> 10138
01> 10769
00> 10155
01> 10809
00> 10139
01> 10789
00> 10113
01> 10717
00> 10123
01> 10720
00> 10144
01> 10774
00> 10152
01> 10809
00> 10142
01> 10789
00> 10113
01> 10719
00> 10119
01> 10711
00> 10144
01> 10769
00> 10154
01> 10818
00> 10149
01> 10806
00> 10127
01> 10729
00> 10124
01> 10718
00> 10136
01> 10765
00> 10151
01> 10806
00> 10152
01> 10801
00> 10121
01> 10725
00> 10113
01> 10709
00> 10126
01> 10763
00> 10138
01> 10797
00> 10128
01> 10782
00> 10105
01> 10720
00> 10112
01> 10717
00> 10133
01> 10760
00> 10139
01> 10796
00> 10126
01> 10789
00> 10099
01> 10715
00> 10104
01> 10709
00> 10132
01> 10773
00> 10143
01> 10806
00> 10138
01> 10786
00> 10113
01> 10716
00> 10109
01> 10711
00> 10136
01> 10769
00> 10148
01> 10811
00> 10158
01> 10814
00> 10145
01> 10749
00> 10143
01> 10724
00> 10166
01> 10778
00> 10202
01> 10863
00> 10203
01> 10874
00> 10182
01> 10824
00> 10190
01> 10838
00> 10198
01> 10913
00> 10221
01> 10997
00> 10228
01> 11038
00> 10222
01> 11035
00> 10245
01> 11091
00> 10291
01> 11221
00> 10333
01> 11331
00> 10352
01> 11391
00> 10351
01> 11386
00> 10365
01> 11424
00> 10394
01> 11501
00> 10419
01> 11571
00> 10428
01> 11589
00> 10411
01> 11542
00> 10411
01> 11546
00> 10436
01> 11606
00> 10449
01> 11650
00> 10452
01> 11650
00> 10423
01> 11581
00> 10416
01> 11567
00> 10436
01> 11608
00> 10455
01> 11647
00> 10449
01> 11640
00> 10413
01> 11574
00> 10399
01> 11557
00> 10416
01> 11594
00> 10430
01> 11619
00> 10428
01> 11596
00> 10400
01> 11519
00> 10394
01> 11493
00> 10405
01> 11534
00> 10421
01> 11566
00> 10408
01> 11547
00> 10369
01> 11463
00> 10366
01> 11433
00> 10385
01> 11476
00> 10398
01> 11500
00> 10386
01> 11469
00> 10349
01> 11380
00> 10339
01> 11341
00> 10358
01> 11364
00> 10358
01> 11382
00> 10342
01> 11341
00> 10306
01> 11239
00> 10293
01> 11201
00> 10293
01> 11225
00> 10291
01> 11226
00> 10281
01> 11193
00> 10241
01> 11097
00> 10222
01> 11049
00> 10227
01> 11069
00> 10238
01> 11097
00> 10226
01> 11065
00> 10186
01> 10971
00> 10176
01> 10929
00> 10188
01> 10948
00> 10200
01> 10977
00> 10191
01> 10953
00> 10151
01> 10863
00> 10143
01> 10841
00> 10158
01> 10884
00> 10165
01> 10914
00> 10156
01> 10893
00> 10121
01> 10808
00> 10111
01> 10769
00> 10125
01> 10796
00> 10133
01> 10823
00> 10131
01> 10816
00> 10101
01> 10745
00> 10084
01> 10711
00> 10096
01> 10737
00> 10104
01> 10761
00> 10098
01> 10756
00> 10063
01> 10692
00> 10057
01> 10676
00> 10080
01> 10714
00> 10094
01> 10749
00> 10087
01> 10738
00> 10063
01> 10656
00> 10051
01> 10631
00> 10066
01> 10663
00> 10081
01> 10701
00> 10074
01> 10693
00> 10057
01> 10638
00> 10056
01> 10633
00> 10069
01> 10681
00> 10081
01> 10706
00> 10075
01> 10691
00> 10047
01> 10623
00> 10045
01> 10597
00> 10063
01> 10631
00> 10076
01> 10657
00> 10068
01> 10656
00> 10048
01> 10588
00> 10044
01> 10579
00> 10066
01> 10621
00> 10078
01> 10648
00> 10074
01> 10654
00> 10056
01> 10589
00> 10053
01> 10572
00> 10061
01> 10617
00> 10076
01> 10656
00> 10074
01> 10651
00> 10059
01> 10592
00> 10058
01> 10581
00> 10064
01> 10613
00> 10066
01> 10624
00> 10061
01> 10611
00> 10040
01> 10556
00> 10039
01> 10538
00> 10053
01> 10588
00> 10060
01> 10619
00> 10057
01> 10607
00> 10029
01> 10539
00> 10026
01> 10518
00> 10048
01> 10566
00> 10059
01> 10602
00> 10059
01> 10589
00> 10025
01> 10514
00> 10019
01> 10494
00> 10040
01> 10540
00> 10056
01> 10582
00> 10044
01> 10574
00> 10021
01> 10492
00> 10024
01> 10478
00> 10039
01> 10532
00> 10052
01> 10584
00> 10046
01> 10578
00> 10013
01> 10498
00> 10009
01> 10476
00> 10026
01> 10521
00> 10034
01> 10548
00> 10032
01> 10538
00> 10014
01> 10472
00> 10006
01> 10442
00> 10009
01> 10479
00> 10018
01> 10521
00> 10016
01> 10517
00> 9991
01> 10463
00> 10004
01> 10460
00> 10021
01> 10501
00> 10038
01> 10548
00> 10034
01> 10559
00> 10013
01> 10501
00> 10018
01> 10470
00> 10033
01> 10471
00> 10036
01> 10505
00> 10028
01> 10540
00> 10009
01> 10505
00> 10011
01> 10485
00> 10035
01> 10520
00> 10049
01> 10553
00> 10042
01> 10552
00> 10020
01> 10484
00> 10015
01> 10453
00> 10031
01> 10492
00> 10049
01> 10533
00> 10041
01> 10532
00> 10018
01> 10471
00> 10008
01> 10453
00> 10018
01> 10490
00> 10035
01> 10526
00> 10025
01> 10510
00> 10001
01> 10429
00> 10000
01> 10419
00> 10014
01> 10478
00> 10023
01> 10499
00> 10019
01> 10503
00> 9991
01> 10461
00> 9989
01> 10452
00> 10007
01> 10494
00> 10018
01> 10528
00> 10018
01> 10521
00> 9992
01> 10456
00> 9979
01> 10429
00> 9999
01> 10474
00> 10010
01> 10501
00> 10008
01> 10498
00> 9992
01> 10456
00> 9991
01> 10433
00> 10007
01> 10481
00> 10031
01> 10534
00> 10049
01> 10544
00> 10034
01> 10469
00> 10036
01> 10434
00> 10058
01> 10484
00> 10085
01> 10560
00> 10101
01> 10593
00> 10091
01> 10555
00> 10107
01> 10578
00> 10121
01> 10678
00> 10146
01> 10819
00> 10197
01> 10930
00> 10226
01> 10994
00> 10279
01> 11164
00> 10364
01> 11399
00> 10466
01> 11613
00> 10539
01> 11731
00> 10557
01> 11763
00> 10574
01> 11816
00> 10620
01> 11923
00> 10663
01> 12011
00> 10686
01> 12040
00> 10681
01> 11999
00> 10681
01> 11970
00> 10689
01> 11989
00> 10694
01> 12028
00> 10698
01> 12036
00> 10673
01> 11952
00> 10654
01> 11891
00> 10648
01> 11899
00> 10636
01> 11911
00> 10614
01> 11880
00> 10569
01> 11774
00> 10534
01> 11696
00> 10528
01> 11691
00> 10526
01> 11696
00> 10501
01> 11658
00> 10451
01> 11536
00> 10414
01> 11443
00> 10403
01> 11444
00> 10398
01> 11443
00> 10374
01> 11394
00> 10321
01> 11274
00> 10292
01> 11198
00> 10299
01> 11204
00> 10301
01> 11203
00> 10283
01> 11160
00> 10236
01> 11047
00> 10203
01> 10972
00> 10209
01> 10973
00> 10213
01> 10991
00> 10204
01> 10976
00> 10165
01> 10879
00> 10144
01> 10814
00> 10148
01> 10827
00> 10153
01> 10849
00> 10145
01> 10831
00> 10114
01> 10740
00> 10104
01> 10679
00> 10114
01> 10696
00> 10115
01> 10719
00> 10104
01> 10717
00> 10081
01> 10657
00> 10071
01> 10609
00> 10077
01> 10643
00> 10086
01> 10680
00> 10078
01> 10673
00> 10062
01> 10587
00> 10058
01> 10540
00> 10064
01> 10589
00> 10072
01> 10633
00> 10063
01> 10632
00> 10040
01> 10551
00> 10027
01> 10489
00> 10034
01> 10528
00> 10051
01> 10585
00> 10052
01> 10594
00> 10034
01> 10533
00> 10029
01> 10508
00> 10047
01> 10551
00> 10054
01> 10576
00> 10048
01> 10568
00> 10023
01> 10481
00> 10010
01> 10440
00> 10025
01> 10491
00> 10038
01> 10542
00> 10038
01> 10558
00> 10016
01> 10496
00> 10008
01> 10453
00> 10029
01> 10496
00> 10039
01> 10542
00> 10038
01> 10541
00> 10019
01> 10473
00> 10013
01> 10439
00> 10033
01> 10486
00> 10046
01> 10531
00> 10041
01> 10541
00> 10008
01> 10460
00> 9995
01> 10419
00> 10010
01> 10460
00> 10025
01> 10496
00> 10026
01> 10486
00> 10004
01> 10429
00> 9996
01> 10419
00> 10013
01> 10478
00> 10029
01> 10525
00> 10027
01> 10519
00> 10001
01> 10436
00> 9988
01> 10383
00> 10006
01> 10427
00> 10024
01> 10479
00> 10023
01> 10493
00> 9990
01> 10427
00> 9984
01> 10393
00> 10011
01> 10441
00> 10030
01> 10495
00> 10031
01> 10493
00> 10006
01> 10413
00> 9995
01> 10385
00> 10011
01> 10439
00> 10033
01> 10491
00> 10034
01> 10493
00> 10003
01> 10419
00> 9991
01> 10391
00> 10013
01> 10434
00> 10031
01> 10458
00> 10028
01> 10446
00> 9998
01> 10391
00> 9988
01> 10369
00> 10001
01> 10414
00> 10014
01> 10498
00> 10019
01> 10527
00> 10003
01> 10442
00> 10004
01> 10392
00> 10019
01> 10436
00> 10035
01> 10492
00> 10038
01> 10522
00> 10012
01> 10447
00> 9993
01> 10384
00> 10006
01> 10425
00> 10020
01> 10470
00> 10018
01> 10442
00> 9999
01> 10383
00> 9994
01> 10380
00> 10011
01> 10444
00> 10026
01> 10496
00> 10029
01> 10496
00> 10011
01> 10426
00> 9998
01> 10389
00> 10009
01> 10426
00> 10029
01> 10463
00> 10031
01> 10481
00> 10007
01> 10425
00> 9993
01> 10396
00> 10013
01> 10447
00> 10029
01> 10488
00> 10029
01> 10497
00> 10003
01> 10434
00> 9994
01> 10389
00> 10014
01> 10434
00> 10026
01> 10481
00> 10023
01> 10489
00> 9998
01> 10430
00> 9993
01> 10399
00> 10020
01> 10446
00> 10041
01> 10489
00> 10044
01> 10503
00> 10014
01> 10443
00> 9998
01> 10384
00> 10010
01> 10408
00> 10024
01> 10465
00> 10031
01> 10495
00> 10009
01> 10439
00> 9989
01> 10389
00> 10000
01> 10414
00> 10011
01> 10442
00> 10009
01> 10435
00> 9976
01> 10356
00> 9971
01> 10314
00> 9984
01> 10353
00> 9988
01> 10399
00> 9985
01> 10398
00> 9967
01> 10331
00> 9954
01> 10293
00> 9964
01> 10336
00> 9981
01> 10394
00> 9982
01> 10408
00> 9962
01> 10316
00> 9948
01> 10258
00> 9958
01> 10314
00> 9983
01> 10378
00> 9989
01> 10398
00> 9964
01> 10329
00> 9951
01> 10291
00> 9959
01> 10330
00> 9974
01> 10368
00> 9980
01> 10369
00> 9952
01> 10303
00> 9931
01> 10258
00> 9946
01> 10299
00> 9974
01> 10354
00> 9981
01> 10385
00> 9963
01> 10334
00> 9948
01> 10288
00> 9959
01> 10326
00> 9977
01> 10371
00> 9973
01> 10372
00> 9943
01> 10306
00> 9922
01> 10256
00> 9941
01> 10303
00> 9965
01> 10349
00> 9977
01> 10371
00> 9960
01> 10324
00> 9951
01> 10296
00> 9973
01> 10348
00> 9998
01> 10396
00> 10004
01> 10393
00> 9954
01> 10289
00> 9931
01> 10257
00> 9948
01> 10314
00> 9966
01> 10367
00> 9966
01> 10371
00> 9924
01> 10286
00> 9880
01> 10227
00> 9888
01> 10264
00> 9906
01> 10304
00> 9908
01> 10306
00> 9883
01> 10228
00> 9863
01> 10172
00> 9880
01> 10209
00> 9888
01> 10253
00> 9885
01> 10261
00> 9852
01> 10191
00> 9829
01> 10150
00> 9851
01> 10196
00> 9869
01> 10236
00> 9860
01> 10222
00> 9829
01> 10156
00> 9821
01> 10148
00> 9846
01> 10213
00> 9871
01> 10271
00> 9878
01> 10277
00> 9851
01> 10207
00> 9835
01> 10168
00> 9852
01> 10228
00> 9870
01> 10273
00> 9878
01> 10266
00> 9858
01> 10196
00> 9846
01> 10151
00> 9857
01> 10196
00> 9881
01> 10276
00> 9886
01> 10318
00> 9868
01> 10263
00> 9851
01> 10211
00> 9863
01> 10240
00> 9876
01> 10283
00> 9879
01> 10280
00> 9853
01> 10217
00> 9829
01> 10171
00> 9835
01> 10201
00> 9856
01> 10267
00> 9863
01> 10301
00> 9838
01> 10240
00> 9821
01> 10181
00> 9836
01> 10219
00> 9849
01> 10269
00> 9859
01> 10272
00> 9836
01> 10204
00> 9823
01> 10156
00> 9836
01> 10206
00> 9861
01> 10263
00> 9864
01> 10266
00> 9829
01> 10201
00> 9816
01> 10161
00> 9830
01> 10206
00> 9849
01> 10264
00> 9853
01> 10284
00> 9832
01> 10217
00> 9814
01> 10157
00> 9824
01> 10188
00> 9843
01> 10233
00> 9843
01> 10264
00> 9816
01> 10203
00> 9801
01> 10149
00> 9814
01> 10194
00> 9834
01> 10260
00> 9846
01> 10288
00> 9817
01> 10216
00> 9803
01> 10166
00> 9826
01> 10208
00> 9845
01> 10266
00> 9854
01> 10284
00> 9826
01> 10216
00> 9809
01> 10165
00> 9833
01> 10221
00> 9854
01> 10281
00> 9849
01> 10295
00> 9821
01> 10233
00> 9805
01> 10183
00> 9818
01> 10211
00> 9829
01> 10262
00> 9836
01> 10276
00> 9815
01> 10211
00> 9800
01> 10161
00> 9819
01> 10203
00> 9838
01> 10255
00> 9847
01> 10275
00> 9819
01> 10228
00> 9805
01> 10191
00> 9834
01> 10243
00> 9855
01> 10294
00> 9861
01> 10308
00> 9838
01> 10251
00> 9818
01> 10213
00> 9833
01> 10249
00> 9844
01> 10292
00> 9846
01> 10299
00> 9829
01> 10248
00> 9825
01> 10218
00> 9845
01> 10254
00> 9860
01> 10293
00> 9866
01> 10316
00> 9831
01> 10253
00> 9813
01> 10203
00> 9822
01> 10236
00> 9837
01> 10279
00> 9836
01> 10271
00> 9807
01> 10191
00> 9779
01> 10118
00> 9784
01> 10143
00> 9787
01> 10189
00> 9784
01> 10203
00> 9760
01> 10148
00> 9748
01> 10099
00> 9773
01> 10156
00> 9811
01> 10226
00> 9819
01> 10234
00> 9801
01> 10174
00> 9791
01> 10133
00> 9793
01> 10161
00> 9818
01> 10213
00> 9826
01> 10238
00> 9787
01> 10170
00> 9765
01> 10117
00> 9776
01> 10159
00> 9801
01> 10229
00> 9825
01> 10258
00> 9799
01> 10179
00> 9776
01> 10123
00> 9781
01> 10162
00> 9816
01> 10246
00> 9834
01> 10271
00> 9808
01> 10194
00> 9808
01> 10149
00> 9819
01> 10196
00> 9829
01> 10235
00> 9842
01> 10248
00> 9822
01> 10186
00> 9809
01> 10123
00> 9806
01> 10146
00> 9824
01> 10197
00> 9844
01> 10224
00> 9822
01> 10157
00> 9798
01> 10109
00> 9836
01> 10164
00> 9836
01> 10202
00> 9823
01> 10193
00> 9784
01> 10124
00> 9766
01> 10056
00> 9783
01> 10105
00> 9808
01> 10171
00> 9833
01> 10213
00> 9828
01> 10160
00> 9786
01> 10099
00> 9799
01> 10139
00> 9836
01> 10232
00> 9855
01> 10283
00> 9831
01> 10250
00> 9819
01> 10233
00> 9828
01> 10269
00> 9864
01> 10356
00> 9917
01> 10424
00> 9899
01> 10379
00> 9876
01> 10336
00> 9893
01> 10394
00> 9926
01> 10461
00> 9929
01> 10470
00> 9904
01> 10413
00> 9905
01> 10398
00> 9925
01> 10461
00> 9946
01> 10499
00> 9946
01> 10508
00> 9929
01> 10452
00> 9895
01> 10380
00> 9898
01> 10390
00> 9934
01> 10449
00> 9965
01> 10483
00> 9958
01> 10442
00> 9939
01> 10379
00> 9945
01> 10402
00> 9950
01> 10442
00> 9956
01> 10452
00> 9960
01> 10417
00> 9961
01> 10373
00> 9961
01> 10399
00> 9976
01> 10441
00> 9986
01> 10455
00> 9958
01> 10379
00> 9938
01> 10319
00> 9941
01> 10368
00> 9966
01> 10433
00> 9960
01> 10440
00> 9932
01> 10373
00> 9919
01> 10318
00> 9954
01> 10363
00> 9958
01> 10403
00> 9944
01> 10414
00> 9924
01> 10349
00> 9914
01> 10305
00> 9920
01> 10329
00> 9936
01> 10367
00> 9945
01> 10381
00> 9923
01> 10330
00> 9897
01> 10272
00> 9919
01> 10313
00> 9926
01> 10353
00> 9941
01> 10381
00> 9906
01> 10321
00> 9893
01> 10278
00> 9920
01> 10332
00> 9931
01> 10364
00> 9933
01> 10379
00> 9918
01> 10346
00> 9905
01> 10314
00> 9896
01> 10320
00> 9924
01> 10374
00> 9956
01> 10411
00> 9941
01> 10360
00> 9901
01> 10293
00> 9913
01> 10323
00> 9911
01> 10348
00> 9881
01> 10330
00> 9858
01> 10268
00> 9851
01> 10216
00> 9841
01> 10209
00> 9873
01> 10279
00> 9891
01> 10313
00> 9866
01> 10244
00> 9845
01> 10183
00> 9854
01> 10216
00> 9871
01> 10279
00> 9883
01> 10301
00> 9862
01> 10243
00> 9848
01> 10186
00> 9868
01> 10229
00> 9871
01> 10274
00> 9876
01> 10306
00> 9862
01> 10263
00> 9848
01> 10203
00> 9877
01> 10253
00> 9902
01> 10314
00> 9908
01> 10326
00> 9875
01> 10259
00> 9849
01> 10199
00> 9877
01> 10251
00> 9911
01> 10319
00> 9908
01> 10337
00> 9881
01> 10279
00> 9866
01> 10226
00> 9873
01> 10249
00> 9894
01> 10305
00> 9901
01> 10331
00> 9878
01> 10277
00> 9868
01> 10230
00> 9883
01> 10266
00> 9901
01> 10314
00> 9916
01> 10344
00> 9898
01> 10289
00> 9875
01> 10223
00> 9889
01> 10258
00> 9906
01> 10311
00> 9909
01> 10320
00> 9891
01> 10271
00> 9867
01> 10218
00> 9888
01> 10260
00> 9914
01> 10316
00> 9919
01> 10335
00> 9897
01> 10285
00> 9874
01> 10229
00> 9888
01> 10256
00> 9908
01> 10303
00> 9913
01> 10321
00> 9893
01> 10250
00> 9866
01> 10176
00> 9882
01> 10222
00> 9906
01> 10293
00> 9912
01> 10319
00> 9896
01> 10277
00> 9892
01> 10215
00> 9909
01> 10253
00> 9914
01> 10331
00> 9926
01> 10397
00> 9925
01> 10372
00> 9914
01> 10329
00> 9940
01> 10380
00> 9968
01> 10446
00> 9987
01> 10499
00> 9968
01> 10470
00> 9958
01> 10416
00> 9974
01> 10448
00> 10004
01> 10529
00> 10016
01> 10574
00> 10008
01> 10538
00> 9994
01> 10488
00> 10004
01> 10516
00> 10025
01> 10573
00> 10027
01> 10591
00> 10003
01> 10515
00> 9979
01> 10425
00> 9986
01> 10438
00> 10000
01> 10484
00> 10004
01> 10502
00> 9981
01> 10446
00> 9959
01> 10385
00> 9969
01> 10411
00> 9987
01> 10451
00> 9991
01> 10459
00> 9968
01> 10395
00> 9948
01> 10323
00> 9958
01> 10358
00> 9974
01> 10419
00> 9981
01> 10438
00> 9962
01> 10380
00> 9940
01> 10312
00> 9948
01> 10351
00> 9969
01> 10410
00> 9975
01> 10433
00> 9950
01> 10381
00> 9928
01> 10312
00> 9937
01> 10337
00> 9957
01> 10388
00> 9963
01> 10401
00> 9943
01> 10351
00> 9923
01> 10288
00> 9931
01> 10318
00> 9951
01> 10377
00> 9965
01> 10412
00> 9949
01> 10366
00> 9932
01> 10299
00> 9946
01> 10316
00> 9961
01> 10358
00> 9967
01> 10379
00> 9948
01> 10331
00> 9928
01> 10266
00> 9940
01> 10291
00> 9961
01> 10344
00> 9972
01> 10368
00> 9953
01> 10323
00> 9936
01> 10268
00> 9958
01> 10309
00> 9987
01> 10372
00> 9999
01> 10388
00> 9973
01> 10346
00> 9968
01> 10324
00> 9997
01> 10396
00> 10031
01> 10475
00> 10053
01> 10519
00> 10044
01> 10492
00> 10028
01> 10461
00> 10045
01> 10508
00> 10066
01> 10572
00> 10076
01> 10609
00> 10066
01> 10563
00> 10046
01> 10511
00> 10064
01> 10558
00> 10094
01> 10626
00> 10103
01> 10639
00> 10077
01> 10568
00> 10052
01> 10493
00> 10057
01> 10505
00> 10078
01> 10551
00> 10088
01> 10569
00> 10066
01> 10509
00> 10040
01> 10434
00> 10045
01> 10449
00> 10065
01> 10512
00> 10074
01> 10533
00> 10052
01> 10470
00> 10026
01> 10396
00> 10037
01> 10415
00> 10053
01> 10476
00> 10056
01> 10518
00> 10036
01> 10468
00> 10014
01> 10396
00> 10026
01> 10411
00> 10046
01> 10464
00> 10056
01> 10498
00> 10042
01> 10461
00> 10017
01> 10399
00> 10025
01> 10426
00> 10043
01> 10468
00> 10053
01> 10489
00> 10037
01> 10440
00> 10009
01> 10374
00> 10025
01> 10408
00> 10049
01> 10467
00> 10054
01> 10495
00> 10034
01> 10441
00> 10013
01> 10376
00> 10028
01> 10403
00> 10048
01> 10463
00> 10058
01> 10497
00> 10038
01> 10452
00> 10016
01> 10393
00> 10029
01> 10418
00> 10050
01> 10463
00> 10053
01> 10492
00> 10036
01> 10451
00> 10014
01> 10396
00> 10020
01> 10424
00> 10030
01> 10474
00> 10040
01> 10490
00> 10028
01> 10433
00> 10011
01> 10366
00> 10020
01> 10394
00> 10036
01> 10466
00> 10047
01> 10508
00> 10041
01> 10474
00> 10021
01> 10410
00> 10029
01> 10421
00> 10044
01> 10453
00> 10039
01> 10469
00> 10026
01> 10441
00> 10011
01> 10394
00> 10029
01> 10432
00> 10051
01> 10473
00> 10050
01> 10500
00> 10034
01> 10464
00> 10022
01> 10405
00> 10034
01> 10431
00> 10053
01> 10503
00> 10063
01> 10558
00> 10046
01> 10537
00> 10026
01> 10463
00> 10033
01> 10479
00> 10051
01> 10539
00> 10073
01> 10562
00> 10056
01> 10520
00> 10032
01> 10468
00> 10044
01> 10487
00> 10067
01> 10521
00> 10071
01> 10533
00> 10045
01> 10486
00> 10019
01> 10415
00> 10030
01> 10448
00> 10052
01> 10506
00> 10062
01> 10550
00> 10048
01> 10517
00> 10028
01> 10437
00> 10037
01> 10449
00> 10056
01> 10503
00> 10064
01> 10534
00> 10043
01> 10466
00> 10009
01> 10372
00> 10015
01> 10410
00> 10043
01> 10476
00> 10054
01> 10499
00> 10031
01> 10458
00> 10009
01> 10402
00> 10027
01> 10439
00> 10053
01> 10494
00> 10063
01> 10526
00> 10040
01> 10470
00> 10020
01> 10403
00> 10039
01> 10431
00> 10055
01> 10479
00> 10066
01> 10513
00> 10051
01> 10484
00> 10022
01> 10424
00> 10034
01> 10443
00> 10055
01> 10492
00> 10066
01> 10518
00> 10044
01> 10479
00> 10022
01> 10420
00> 10037
01> 10440
00> 10056
01> 10489
00> 10064
01> 10509
00> 10048
01> 10468
00> 10024
01> 10412
00> 10024
01> 10440
00> 10043
01> 10499
00> 10055
01> 10515
00> 10031
01> 10451
00> 10013
01> 10387
00> 10033
01> 10439
00> 10058
01> 10513
00> 10061
01> 10524
00> 10025
01> 10449
00> 10003
01> 10388
00> 10022
01> 10423
00> 10044
01> 10482
00> 10051
01> 10513
00> 10039
01> 10471
00> 10020
01> 10403
00> 10031
01> 10402
00> 10045
01> 10453
00> 10057
01> 10521
00> 10046
01> 10497
00> 10023
01> 10419
00> 10028
01> 10423
00> 10046
01> 10464
00> 10053
01> 10493
00> 10039
01> 10457
00> 10021
01> 10386
00> 10024
01> 10408
00> 10038
01> 10465
00> 10055
01> 10499
00> 10044
01> 10461
00> 10016
01> 10383
00> 10027
01> 10393
00> 10044
01> 10447
00> 10054
01> 10469
00> 10028
01> 10418
00> 10003

00> 10008
01> 10364
00> 10031
01> 10423
00> 10049
01> 10465
00> 10036
01> 10434
00> 10013
01> 10371
00> 10023
01> 10381
00> 10038
01> 10429
00> 10045
01> 10466
00> 10032
01> 10436
00> 10009
01> 10361
00> 10014
01> 10363
00> 10027
01> 10407
00> 10039
01> 10444
00> 10028
01> 10414
00> 10010
01> 10356
00> 10021
01> 10377
00> 10053
01> 10438
00> 10064
01> 10462
00> 10038
01> 10426
00> 10004
01> 10345
00> 10011
01> 10353
00> 10033
01> 10418
00> 10043
01> 10456
00> 10028
01> 10413
00> 10009
01> 10348
00> 10016
01> 10358
00> 10028
01> 10399
00> 10032
01> 10428
00> 10021
01> 10387
00> 10001
01> 10327
00> 10007
01> 10351
00> 10023
01> 10404
00> 10040
01> 10448
00> 10025
01> 10405
00> 9996
01> 10333
00> 10006
01> 10351
00> 10008
01> 10394
00> 10021
01> 10411
00> 10021
01> 10384
00> 10003
01> 10338
00> 10014
01> 10360
00> 10026
01> 10394
00> 10027
01> 10428
00> 10015
01> 10390
00> 9994
01> 10321
00> 10006
01> 10339
00> 10028
01> 10388
00> 10032
01> 10416
00> 10016
01> 10386
00> 9988
01> 10306
00> 9996
01> 10323
00> 10017
01> 10393
00> 10035
01> 10441
00> 10028
01> 10402
00> 10004
01> 10328
00> 10006
01> 10341
00> 10022
01> 10378
00> 10024
01> 10417
00> 10008
01> 10390
00> 9988
01> 10329
00> 9994
01> 10338
00> 10009
01> 10381
00> 10016
01> 10408
00> 10001
01> 10366
00> 9983
01> 10284
00> 9988
01> 10301
00> 10008
01> 10364
00> 10019
01> 10396
00> 10004
01> 10361
00> 9966
01> 10266
00> 9970
01> 10254
00> 9993
01> 10331
00> 9999
01> 10379
00> 9991
01> 10358
00> 9976
01> 10309
00> 9984
01> 10340
00> 10006
01> 10403
00> 10020
01> 10429
00> 10004
01> 10384
00> 9972
01> 10299
00> 9969
01> 10293
00> 9995
01> 10331
00> 10015
01> 10375
00> 10007
01> 10356
00> 9977
01> 10299
00> 9984
01> 10333
00> 10009
01> 10390
00> 10014
01> 10406
00> 9991
01> 10351
00> 9972
01> 10276
00> 9983
01> 10293
00> 10011
01> 10354
00> 10026
01> 10369
00> 10013
01> 10342
00> 9979
01> 10281
00> 9975
01> 10269
00> 9996
01> 10321
00> 9997
01> 10375
00> 10000
01> 10358
00> 9988
01> 10281
00> 9995
01> 10298
00> 10011
01> 10365
00> 10035
01> 10416
00> 10038
01> 10394
00> 10014
01> 10328
00> 10024
01> 10368
00> 10046
01> 10425
00> 10056
01> 10461
00> 10048
01> 10436
00> 10022
01> 10366
00> 10028
01> 10384
00> 10051
01> 10451
00> 10055
01> 10490
00> 10035
01> 10448
00> 10007
01> 10362
00> 10005
01> 10384
00> 10022
01> 10459
00> 10037
01> 10493
00> 10018
01> 10446
00> 10001
01> 10389
00> 10007
01> 10398
00> 10021
01> 10432
00> 10033
01> 10455
00> 10021
01> 10430
00> 9989
01> 10353
00> 9986
01> 10351
00> 10001
01> 10381
00> 10010
01> 10414
00> 9996
01> 10376
00> 9971
01> 10317
00> 9968
01> 10336
00> 9987
01> 10385
00> 9998
01> 10413
00> 9985
01> 10380
00> 9958
01> 10301
00> 9966
01> 10304
00> 9981
01> 10358
00> 9999
01> 10398
00> 9979
01> 10366
00> 9960
01> 10269
00> 9963
01> 10259
00> 9975
01> 10329
00> 9980
01> 10379
00> 9972
01> 10360
00> 9968
01> 10290
00> 9982
01> 10294
00> 9996
01> 10344
00> 10009
01> 10398
00> 10007
01> 10382
00> 9984
01> 10311
00> 9989
01> 10318
00> 10010
01> 10365
00> 10023
01> 10396
00> 10004
01> 10358
00> 9974
01> 10287
00> 9988
01> 10308
00> 10005
01> 10366
00> 10018
01> 10389
00> 10010
01> 10366
00> 9986
01> 10314
00> 9990
01> 10318
00> 10000
01> 10349
00> 10018
01> 10389
00> 10018
01> 10385
00> 9988
01> 10318
00> 9984
01> 10310
00> 10006
01> 10361
00> 10023
01> 10406
00> 10017
01> 10370
00> 9996
01> 10315
00> 10008
01> 10346
00> 10024
01> 10391
00> 10031
01> 10401
00> 10018
01> 10361
00> 9991
01> 10299
00> 9996
01> 10309
00> 10016
01> 10369
00> 10029
01> 10408
00> 10013
01> 10379
00> 9984
01> 10300
00> 9986
01> 10297
00> 9999
01> 10355
00> 10023
01> 10399
00> 10011
01> 10391
00> 9986
01> 10305
00> 9993
01> 10293
00> 10015
01> 10353
00> 10024
01> 10402
00> 10011
01> 10376
00> 9998
01> 10317
00> 9998
01> 10319
00> 10018
01> 10365
00> 10032
01> 10404
00> 10013
01> 10368
00> 9989
01> 10310
00> 9995
01> 10307
00> 10017
01> 10361
00> 10023
01> 10389
00> 10007
01> 10355
00> 9978
01> 10279
00> 9974
01> 10283
00> 10005
01> 10334
00> 10029
01> 10376
00> 10003
01> 10364
00> 9980
01> 10304
00> 9991
01> 10309
00> 10008
01> 10364
00> 10003
01> 10384
00> 10018
01> 10359
00> 10006
01> 10299
00> 10021
01> 10313
00> 10029
01> 10373
00> 10019
01> 10408
00> 10014
01> 10388
00> 9995
01> 10316
00> 10006
01> 10331
00> 10021
01> 10404
00> 10038
01> 10460
00> 10031
01> 10445
00> 9993
01> 10362
00> 10019
01> 10366
00> 10033
01> 10425
00> 10020
01> 10442
00> 10009
01> 10401
00> 9995
01> 10316
00> 10007
01> 10327
00> 10013
01> 10395
00> 10022
01> 10445
00> 10015
01> 10415
00> 10001
01> 10348
00> 10004
01> 10353
00> 10013
01> 10413
00> 10016
01> 10439
00> 10026
01> 10417
00> 10001
01> 10345
00> 10008
01> 10348
00> 10004
01> 10393
00> 10033
01> 10434
00> 10028
01> 10417
00> 9992
01> 10354
00> 10000
01> 10345
00> 10031
01> 10391
00> 10037
01> 10433
00> 10021
01> 10418
00> 10000
01> 10357
00> 10019
01> 10365
00> 10044
01> 10414
00> 10038
01> 10451
00> 10031
01> 10426
00> 10003
01> 10356
00> 9999
01> 10358
00> 10031
01> 10419
00> 10052
01> 10447
00> 10017
01> 10406
00> 9999
01> 10351
00> 10011
01> 10369
00> 10027
01> 10449
00> 10036
01> 10476
00> 10041
01> 10459
00> 10012
01> 10393
00> 10016
01> 10389
00> 10025
01> 10428
00> 10034
01> 10463
00> 10028
01> 10440
00> 9993
01> 10368
00> 10015
01> 10388
00> 10052
01> 10446
00> 10044
01> 10474
00> 10009
01> 10451
00> 9967
01> 10403
00> 9991
01> 10396
00> 10016
01> 10455
00> 10037
01> 10503
00> 10036
01> 10487
00> 9993
01> 10416
00> 10004
01> 10418
00> 10041
01> 10483
00> 10058
01> 10523
00> 10044
01> 10509
00> 10040
01> 10456
00> 10044
01> 10451
00> 10061
01> 10494
00> 10079
01> 10548
00> 10080
01> 10538
00> 10048
01> 10453
00> 10024
01> 10443
00> 10038
01> 10481
00> 10074
01> 10513
00> 10061
01> 10494
00> 10025
01> 10422
00> 10024
01> 10424
00> 10039
01> 10484
00> 10061
01> 10521
00> 10049
01> 10492
00> 10025
01> 10424
00> 10036
01> 10430
00> 10044
01> 10481
00> 10065
01> 10533
00> 10064
01> 10503
00> 10033
01> 10427
00> 10034
01> 10431
00> 10058
01> 10474
00> 10068
01> 10505
00> 10053
01> 10493
00> 10037
01> 10424
00> 10029
01> 10419
00> 10033
01> 10468
00> 10069
01> 10501
00> 10063
01> 10483
00> 10030
01> 10418
00> 10026
01> 10401
00> 10039
01> 10443
00> 10069
01> 10510
00> 10080
01> 10512
00> 10063
01> 10445
00> 10080
01> 10441
00> 10096
01> 10486
00> 10101
01> 10524
00> 10086
01> 10498
00> 10056
01> 10427
00> 10059
01> 10425
00> 10081
01> 10481
00> 10104
01> 10520
00> 10112
01> 10511
00> 10089
01> 10451
00> 10091
01> 10443
00> 10096
01> 10481
00> 10098
01> 10488
00> 10072
01> 10456
00> 10068
01> 10390
00> 10063
01> 10374
00> 10077
01> 10416
00> 10078
01> 10459
00> 10075
01> 10455
00> 10053
01> 10386
00> 10034
01> 10379
00> 10052
01> 10431
00> 10073
01> 10453
00> 10058
01> 10423
00> 10024
01> 10334
00> 10014
01> 10314
00> 10016
01> 10383
00> 10067
01> 10445
00> 10078
01> 10451
00> 10050
01> 10377
00> 10041
01> 10356
00> 10054
01> 10380
00> 10066
01> 10414
00> 10053
01> 10424
00> 10025
01> 10371
00> 10034
01> 10361
00> 10051
01> 10408
00> 10058
01> 10442
00> 10050
01> 10423
00> 10028
01> 10346
00> 10028
01> 10337
00> 10048
01> 10393
00> 10064
01> 10436
00> 10057
01> 10419
00> 10029
01> 10344
00> 10026
01> 10328
00> 10031
01> 10373
00> 10045
01> 10414
00> 10046
01> 10401
00> 10036
01> 10342
00> 10037
01> 10342
00> 10058
01> 10404
00> 10066
01> 10440
00> 10060
01> 10416
00> 10036
01> 10341
00> 10041
01> 10331
00> 10063
01> 10389
00> 10069
01> 10423
00> 10058
01> 10408
00> 10044
01> 10342
00> 10050
01> 10353
00> 10071
01> 10403
00> 10084
01> 10435
00> 10064
01> 10418
00> 10044
01> 10339
00> 10051
01> 10343
00> 10068
01> 10407
00> 10074
01> 10439
00> 10069
01> 10419
00> 10043
01> 10353
00> 10053
01> 10354
00> 10058
01> 10404
00> 10070
01> 10426
00> 10059
01> 10406
00> 10043
01> 10342
00> 10041
01> 10346
00> 10064
01> 10411
00> 10081
01> 10458
00> 10073
01> 10456
00> 10043
01> 10384
00> 10038
01> 10361
00> 10059
01> 10394
00> 10075
01> 10440
00> 10073
01> 10448
00> 10066
01> 10371
00> 10060
01> 10374
00> 10061
01> 10434
00> 10089
01> 10487
00> 10081
01> 10481
00> 10064
01> 10408
00> 10061
01> 10408
00> 10081
01> 10456
00> 10097
01> 10488
00> 10100
01> 10479
00> 10070
01> 10414
00> 10059
01> 10403
00> 10101
01> 10459
00> 10115
01> 10510
00> 10109
01> 10513
00> 10086
01> 10449
00> 10094
01> 10434
00> 10114
01> 10488
00> 10128
01> 10522
00> 10125
01> 10519
00> 10098
01> 10443
00> 10104
01> 10439
00> 10121
01> 10493
00> 10138
01> 10540
00> 10126
01> 10519
00> 10098
01> 10441
00> 10098
01> 10433
00> 10110
01> 10485
00> 10128
01> 10524
00> 10121
01> 10511
00> 10093
01> 10445
00> 10086
01> 10446
00> 10118
01> 10512
00> 10125
01> 10556
00> 10130
01> 10526
00> 10116
01> 10449
00> 10113
01> 10444
00> 10118
01> 10482
00> 10128
01> 10509
00> 10133
01> 10506
00> 10109
01> 10449
00> 10103
01> 10456
00> 10123
01> 10491
00> 10134
01> 10521
00> 10112
01> 10521
00> 10116
01> 10463
00> 10107
01> 10458
00> 10124
01> 10513
00> 10134
01> 10537
00> 10136
01> 10523
00> 10118
01> 10448
00> 10113
01> 10428
00> 10110
01> 10480
00> 10129
01> 10529
00> 10143
01> 10521
00> 10103
01> 10436
00> 10096
01> 10420
00> 10121
01> 10471
00> 10151
01> 10521
00> 10144
01> 10514
00> 10128
01> 10462
00> 10123
01> 10443
00> 10129
01> 10482
00> 10141
01> 10546
00> 10129
01> 10528
00> 10119
01> 10463
00> 10106
01> 10468
00> 10132
01> 10505
00> 10141
01> 10533
00> 10121
01> 10536
00> 10109
01> 10446
00> 10103
01> 10439
00> 10117
01> 10502
00> 10138
01> 10551
00> 10123
01> 10516
00> 10083
01> 10424
00> 10082
01> 10431
00> 10111
01> 10498
00> 10121
01> 10540
00> 10113
01> 10551
00> 10108
01> 10476
00> 10103
01> 10455
00> 10112
01> 10502
00> 10141
01> 10544
00> 10133
01> 10536
00> 10105
01> 10463
00> 10074
01> 10431
00> 10106
01> 10482
00> 10124
01> 10535
00> 10117
01> 10541
00> 10093
01> 10480
00> 10088
01> 10472
00> 10118
01> 10534
00> 10126
01> 10554
00> 10105
01> 10517
00> 10076
01> 10454
00> 10082
01> 10449
00> 10098
01> 10507
00> 10111
01> 10558
00> 10098
01> 10556
00> 10104
01> 10483
00> 10091
01> 10466
00> 10097
01> 10509
00> 10102
01> 10543
00> 10103
01> 10539
00> 10075
01> 10459
00> 10085
01> 10463
00> 10095
01> 10494
00> 10092
01> 10526
00> 10094
01> 10514
00> 10056
01> 10444
00> 10071
01> 10420
00> 10103
01> 10479
00> 10118
01> 10541
00> 10127
01> 10544
00> 10089
01> 10469
00> 10070
01> 10452
00> 10099
01> 10504
00> 10113
01> 10553
00> 10110
01> 10544
00> 10084
01> 10474
00> 10058
01> 10434
00> 10078
01> 10466
00> 10114
01> 10536
00> 10109
01> 10538
00> 10088
01> 10474
00> 10084
01> 10462
00> 10100
01> 10511
00> 10113
01> 10546
00> 10127
01> 10541
00> 10093
01> 10478
00> 10078
01> 10479
00> 10105
01> 10518
00> 10111
01> 10582
00> 10111
01> 10563
00> 10101
01> 10475
00> 10093
01> 10461
00> 10117
01> 10516
00> 10131
01> 10551
00> 10121
01> 10539
00> 10091
01> 10471
00> 10086
01> 10463
00> 10099
01> 10516
00> 10119
01> 10564
00> 10109
01> 10536
00> 10079
01> 10446
00> 10066
01> 10438
00> 10081
01> 10506
00> 10123
01> 10561
00> 10114
01> 10556
00> 10082
01> 10481
00> 10076
01> 10464
00> 10090
01> 10510
00> 10116
01> 10574
00> 10114
01> 10564
00> 10092
01> 10486
00> 10076
01> 10464
00> 10098
01> 10516
00> 10107
01> 10580
00> 10108
01> 10565
00> 10083
01> 10481
00> 10079
01> 10456
00> 10084
01> 10504
00> 10102
01> 10549
00> 10094
01> 10543
00> 10080
01> 10483
00> 10076
01> 10479
00> 10107
01> 10526
00> 10114
01> 10566
00> 10112
01> 10548
00> 10089
01> 10468
00> 10091
01> 10449
00> 10113
01> 10503
00> 10119
01> 10564
00> 10118
01> 10561
00> 10089
01> 10470
00> 10088
01> 10461
00> 10111
01> 10508
00> 10132
01> 10548
00> 10128
01> 10543
00> 10112
01> 10469
00> 10103
01> 10448
00> 10106
01> 10489
00> 10128
01> 10543
00> 10121
01> 10542
00> 10087
01> 10453
00> 10091
01> 10424
00> 10119
01> 10489
00> 10140
01> 10552
00> 10131
01> 10539
00> 10103
01> 10469
00> 10098
01> 10461
00> 10121
01> 10493
00> 10127
01> 10537
00> 10137
01> 10535
00> 10113
01> 10457
00> 10105
01> 10438
00> 10118
01> 10506
00> 10127
01> 10542
00> 10128
01> 10518
00> 10109
01> 10446
00> 10111
01> 10441
00> 10124
01> 10504
00> 10141
01> 10568
00> 10111
01> 10564
00> 10102
01> 10476
00> 10090
01> 10446
00> 10095
01> 10485
00> 10112
01> 10536
00> 10117
01> 10548
00> 10092
01> 10471
00> 10088
01> 10452
00> 10104
01> 10506
00> 10125
01> 10541
00> 10118
01> 10533
00> 10092
01> 10466
00> 10090
01> 10449
00> 10109
01> 10506
00> 10122
01> 10558
00> 10106
01> 10512
00> 10086
01> 10428
00> 10073
01> 10438
00> 10098
01> 10506
00> 10144
01> 10569
00> 10143
01> 10566
00> 10108
01> 10492
00> 10106
01> 10455
00> 10119
01> 10492
00> 10134
01> 10551
00> 10126
01> 10561
00> 10096
01> 10486
00> 10084
01> 10456
00> 10105
01> 10476
00> 10134
01> 10539
00> 10130
01> 10553
00> 10105
01> 10485
00> 10104
01> 10463
00> 10116
01> 10513
00> 10131
01> 10547
00> 10143
01> 10542
00> 10109
01> 10476
00> 10095
01> 10465
00> 10133
01> 10536
00> 10145
01> 10576
00> 10136
01> 10566
00> 10111
01> 10514
00> 10108
01> 10466
00> 10130
01> 10516
00> 10153
01> 10558
00> 10142
01> 10543
00> 10123
01> 10488
00> 10110
01> 10461
00> 10128
01> 10514
00> 10132
01> 10554
00> 10132
01> 10548
00> 10119
01> 10476
00> 10111
01> 10461
00> 10114
01> 10512
00> 10147
01> 10572
00> 10147
01> 10585
00> 10118
01> 10509
00> 10106
01> 10491
00> 10132
01> 10525
00> 10153
01> 10544
00> 10141
01> 10549
00> 10110
01> 10486
00> 10101
01> 10459
00> 10115
01> 10513
00> 10151
01> 10583
00> 10141
01> 10591
00> 10114
01> 10504
00> 10108
01> 10485
00> 10124
01> 10539
00> 10151
01> 10585
00> 10158
01> 10580
00> 10129
01> 10504
00> 10126
01> 10482
00> 10138
01> 10549
00> 10156
01> 10588
00> 10156
01> 10588
00> 10138
01> 10529
00> 10125
01> 10494
00> 10147
01> 10537
00> 10163
01> 10584
00> 10163
01> 10588
00> 10139
01> 10528
00> 10126
01> 10486
00> 10136
01> 10538
00> 10166
01> 10586
00> 10161
01> 10567
00> 10132
01> 10482
00> 10110
01> 10463
00> 10144
01> 10544
00> 10177
01> 10616
00> 10174
01> 10616
00> 10147
01> 10539
00> 10128
01> 10488
00> 10142
01> 10536
00> 10163
01> 10587
00> 10166
01> 10592
00> 10145
01> 10531
00> 10136
01> 10507
00> 10160
01> 10551
00> 10178
01> 10593
00> 10166
01> 10587
00> 10128
01> 10515
00> 10125
01> 10476
00> 10148
01> 10529
00> 10175
01> 10593
00> 10164
01> 10599
00> 10143
01> 10526
00> 10143
01> 10486
00> 10165
01> 10556
00> 10180
01> 10599
00> 10169
01> 10606
00> 10134
01> 10531
00> 10142
01> 10509
00> 10171
01> 10569
00> 10178
01> 10611
00> 10174
01> 10614
00> 10153
01> 10530
00> 10141
01> 10516
00> 10156
01> 10574
00> 10168
01> 10594
00> 10167
01> 10606
00> 10147
01> 10532
00> 10144
01> 10486
00> 10163
01> 10551
00> 10176
01> 10606
00> 10169
01> 10598
00> 10154
01> 10541
00> 10141
01> 10520
00> 10163
01> 10574
00> 10176
01> 10631
00> 10163
01> 10626
00> 10147
01> 10543
00> 10161
01> 10526
00> 10169
01> 10568
00> 10176
01> 10603
00> 10186
01> 10610
00> 10155
01> 10528
00> 10143
01> 10493
00> 10166
01> 10548
00> 10189
01> 10598
00> 10174
01> 10606
00> 10147
01> 10544
00> 10144
01> 10519
00> 10161
01> 10549
00> 10171
01> 10598
00> 10184
01> 10604
00> 10152
01> 10525
00> 10154
01> 10498
00> 10172
01> 10554
00> 10192
01> 10624
00> 10191
01> 10616
00> 10154
01> 10538
00> 10146
01> 10510
00> 10169
01> 10564
00> 10187
01> 10613
00> 10188
01> 10604
00> 10159
01> 10530
00> 10148
01> 10504
00> 10157
01> 10548
00> 10184
01> 10599
00> 10188
01> 10603
00> 10162
01> 10541
00> 10158
01> 10519
00> 10159
01> 10558
00> 10170
01> 10596
00> 10173
01> 10600
00> 10154
01> 10537
00> 10149
01> 10493
00> 10167
01> 10543
00> 10176
01> 10588
00> 10172
01> 10597
00> 10154
01> 10527
00> 10136
01> 10484
00> 10148
01> 10521
00> 10169
01> 10575
00> 10164
01> 10581
00> 10137
01> 10527
00> 10129
01> 10492
00> 10148
01> 10528
00> 10171
01> 10590
00> 10167
01> 10589
00> 10140
01> 10518
00> 10123
01> 10490
00> 10151
01> 10553
00> 10170
01> 10598
00> 10173
01> 10604
00> 10146
01> 10529
00> 10134
01> 10494
00> 10151
01> 10529
00> 10176
01> 10582
00> 10171
01> 10588
00> 10149
01> 10535
00> 10144
01> 10518
00> 10161
01> 10568
00> 10176
01> 10619
00> 10160
01> 10599
00> 10149
01> 10534
00> 10152
01> 10501
00> 10163
01> 10553
00> 10183
01> 10609
00> 10183
01> 10631
00> 10159
01> 10553
00> 10145
01> 10528
00> 10167
01> 10578
00> 10184
01> 10601
00> 10189
01> 10601
00> 10155
01> 10539
00> 10142
01> 10500
00> 10163
01> 10555
00> 10181
01> 10606
00> 10176
01> 10592
00> 10154
01> 10541
00> 10155
01> 10540
00> 10169
01> 10578
00> 10184
01> 10619
00> 10179
01> 10614
00> 10153
01> 10556
00> 10144
01> 10520
00> 10167
01> 10568
00> 10174
01> 10619
00> 10173
01> 10616
00> 10139
01> 10538
00> 10126
01> 10511
00> 10153
01> 10569
00> 10171
01> 10622
00> 10179
01> 10633
00> 10163
01> 10566
00> 10148
01> 10524
00> 10168
01> 10561
00> 10179
01> 10601
00> 10172
01> 10614
00> 10151
01> 10558
00> 10149
01> 10543
00> 10169
01> 10588
00> 10177
01> 10614
00> 10171
01> 10608
00> 10148
01> 10551
00> 10144
01> 10518
00> 10169
01> 10577
00> 10186
01> 10625
00> 10185
01> 10632
00> 10151
01> 10561
00> 10146
01> 10516
00> 10163
01> 10566
00> 10174
01> 10618
00> 10170
01> 10609
00> 10153
01> 10533
00> 10147
01> 10515
00> 10161
01> 10573
00> 10178
01> 10626
00> 10184
01> 10633
00> 10155
01> 10571
00> 10148
01> 10539
00> 10167
01> 10560
00> 10180
01> 10603
00> 10184
01> 10603
00> 10156
01> 10553
00> 10144
01> 10547
00> 10166
01> 10586
00> 10173
01> 10613
00> 10172
01> 10609
00> 10149
01> 10553
00> 10139
01> 10519
00> 10144
01> 10562
00> 10178
01> 10617
00> 10186
01> 10619
00> 10159
01> 10553
00> 10147
01> 10523
00> 10158
01> 10566
00> 10170
01> 10609
00> 10173
01> 10614
00> 10149
01> 10531
00> 10133
01> 10505
00> 10156
01> 10558
00> 10178
01> 10605
00> 10169
01> 10605
00> 10148
01> 10528
00> 10146
01> 10498
00> 10159
01> 10556
00> 10174
01> 10599
00> 10179
01> 10603
00> 10152
01> 10551
00> 10141
01> 10513
00> 10163
01> 10556
00> 10170
01> 10608
00> 10170
01> 10601
00> 10148
01> 10524
00> 10137
01> 10493
00> 10157
01> 10538
00> 10168
01> 10581
00> 10165
01> 10603
00> 10146
01> 10558
00> 10138
01> 10509
00> 10153
01> 10548
00> 10182
01> 10613
00> 10178
01> 10610
00> 10148
01> 10546
00> 10141
01> 10502
00> 10156
01> 10541
00> 10176
01> 10612
00> 10189
01> 10618
00> 10158
01> 10540
00> 10148
01> 10487
00> 10161
01> 10523
00> 10187
01> 10594
00> 10180
01> 10609
00> 10153
01> 10560
00> 10144
01> 10514
00> 10161
01> 10559
00> 10174
01> 10594
00> 10176
01> 10601
00> 10144
01> 10564
00> 10144
01> 10515
00> 10154
01> 10553
00> 10175
01> 10593
00> 10180
01> 10598
00> 10150
01> 10533
00> 10146
01> 10493
00> 10167
01> 10549
00> 10181
01> 10599
00> 10176
01> 10609
00> 10156
01> 10543
00> 10148
01> 10503
00> 10162
01> 10546
00> 10170
01> 10588
00> 10179
01> 10610
00> 10164
01> 10539
00> 10149
01> 10498
00> 10153
01> 10541
00> 10175
01> 10585
00> 10191
01> 10593
00> 10163
01> 10527
00> 10153
01> 10497
00> 10166
01> 10550
00> 10193
01> 10606
00> 10196
01> 10614
00> 10164
01> 10550
00> 10158
01> 10511
00> 10175
01> 10548
00> 10183
01> 10589
00> 10186
01> 10611
00> 10168
01> 10552
00> 10159
01> 10510
00> 10166
01> 10542
00> 10186
01> 10591
00> 10198
01> 10589
00> 10173
01> 10523
00> 10158
01> 10495
00> 10178
01> 10558
00> 10199
01> 10613
00> 10194
01> 10621
00> 10168
01> 10543
00> 10158
01> 10501
00> 10169
01> 10544
00> 10184
01> 10592
00> 10197
01> 10614
00> 10179
01> 10551
00> 10166
01> 10494
00> 10184
01> 10533
00> 10198
01> 10598
00> 10199
01> 10602
00> 10178
01> 10534
00> 10155
01> 10494
00> 10174
01> 10532
00> 10189
01> 10594
00> 10203
01> 10614
00> 10181
01> 10553
00> 10170
01> 10518
00> 10186
01> 10561
00> 10201
01> 10600
00> 10198
01> 10606
00> 10175
01> 10543
00> 10168
01> 10491
00> 10183
01> 10544
00> 10200
01> 10593
00> 10195
01> 10594
00> 10170
01> 10514
00> 10154
01> 10463
00> 10176
01> 10516
00> 10188
01> 10573
00> 10176
01> 10583
00> 10151
01> 10514
00> 10154
01> 10484
00> 10166
01> 10528
00> 10183
01> 10591
00> 10189
01> 10606
00> 10159
01> 10536
00> 10148
01> 10491
00> 10160
01> 10526
00> 10178
01> 10558
00> 10194
01> 10578
00> 10164
01> 10513
00> 10139
01> 10474
00> 10169
01> 10516
00> 10180
01> 10551
00> 10175
01> 10574
00> 10158
01> 10517
00> 10146
01> 10468
00> 10165
01> 10509
00> 10176
01> 10566
00> 10187
01> 10586
00> 10153
01> 10537
00> 10136
01> 10491
00> 10162
01> 10498
00> 10181
01> 10555
00> 10173
01> 10569
00> 10148
01> 10512
00> 10140
01> 10479
00> 10153
01> 10517
00> 10171
01> 10565
00> 10171
01> 10566
00> 10152
01> 10510
00> 10139
01> 10459
00> 10152
01> 10503
00> 10168
01> 10560
00> 10174
01> 10559
00> 10151
01> 10504
00> 10142
01> 10469
00> 10164
01> 10508
00> 10179
01> 10559
00> 10185
01> 10571
00> 10166
01> 10513
00> 10142
01> 10462
00> 10150
01> 10496
00> 10179
01> 10556
00> 10191
01> 10580
00> 10170
01> 10501
00> 10145
01> 10461
00> 10171
01> 10509
00> 10191
01> 10566
00> 10193
01> 10583
00> 10167
01> 10513
00> 10157
01> 10468
00> 10173
01> 10509
00> 10180
01> 10566
00> 10194
01> 10589
00> 10171
01> 10517
00> 10159
01> 10475
00> 10168
01> 10513
00> 10179
01> 10560
00> 10183
01> 10566
00> 10166
01> 10508
00> 10152
01> 10479
00> 10176
01> 10523
00> 10186
01> 10560
00> 10186
01> 10560
00> 10156
01> 10491
00> 10141
01> 10451
00> 10159
01> 10504
00> 10168
01> 10551
00> 10168
01> 10566
00> 10153
01> 10509
00> 10146
01> 10463
00> 10158
01> 10500
00> 10169
01> 10549
00> 10184
01> 10568
00> 10171
01> 10511
00> 10151
01> 10471
00> 10161
01> 10516
00> 10169
01> 10573
00> 10179
01> 10570
00> 10160
01> 10503
00> 10153
01> 10457
00> 10161
01> 10511
00> 10179
01> 10551
00> 10190
01> 10562
00> 10154
01> 10501
00> 10146
01> 10464
00> 10166
01> 10500
00> 10196
01> 10566
00> 10194
01> 10579
00> 10175
01> 10503
00> 10159
01> 10456
00> 10171
01> 10494
00> 10186
01> 10544
00> 10181
01> 10551
00> 10157
01> 10469
00> 10141
01> 10419
00> 10156
01> 10466
00> 10185
01> 10519
00> 10189
01> 10545
00> 10159
01> 10493
00> 10149
01> 10446
00> 10162
01> 10486
00> 10178
01> 10525
00> 10171
01> 10520
00> 10151
01> 10464
00> 10144
01> 10444
00> 10166
01> 10493
00> 10182
01> 10544
00> 10181
01> 10568
00> 10161
01> 10494
00> 10140
01> 10441
00> 10143
01> 10493
00> 10171
01> 10531
00> 10177
01> 10553
00> 10153
01> 10494
00> 10142
01> 10451
00> 10149
01> 10470
00> 10169
01> 10524
00> 10178
01> 10559
00> 10155
01> 10510
00> 10139
01> 10466
00> 10145
01> 10501
00> 10169
01> 10564
00> 10187
01> 10573
00> 10162
01> 10509
00> 10149
01> 10474
00> 10172
01> 10509
00> 10189
01> 10562
00> 10184
01> 10584
00> 10162
01> 10520
00> 10149
01> 10475
00> 10168
01> 10506
00> 10188
01> 10548
00> 10191
01> 10564
00> 10174
01> 10503
00> 10151
01> 10459
00> 10169
01> 10509
00> 10186
01> 10546
00> 10181
01> 10558
00> 10158
01> 10514
00> 10156
01> 10474
00> 10168
01> 10534
00> 10188
01> 10594
00> 10197
01> 10585
00> 10174
01> 10526
00> 10155
01> 10471
00> 10175
01> 10518
00> 10188
01> 10564
00> 10194
01> 10593
00> 10176
01> 10545
00> 10163
01> 10481
00> 10169
01> 10514
00> 10182
01> 10569
00> 10203
01> 10603
00> 10178
01> 10539
00> 10156
01> 10477
00> 10163
01> 10516
00> 10193
01> 10585
00> 10197
01> 10607
00> 10176
01> 10549
00> 10153
01> 10497
00> 10167
01> 10529
00> 10180
01> 10581
00> 10197
01> 10588
00> 10163
01> 10506
00> 10144
01> 10474
00> 10158
01> 10526
00> 10177
01> 10583
00> 10183
01> 10600
00> 10162
01> 10540
00> 10151
01> 10465
00> 10163
01> 10496
00> 10171
01> 10579
00> 10196
01> 10611
00> 10162
01> 10572
00> 10153
01> 10490
00> 10178
01> 10515
00> 10199
01> 10574
00> 10190
01> 10588
00> 10161
01> 10528
00> 10162
01> 10474
00> 10153
01> 10505
00> 10166
01> 10570
00> 10203
01> 10581
00> 10178
01> 10520
00> 10158
01> 10478
00> 10175
01> 10506
00> 10193
01> 10580
00> 10219
01> 10596
00> 10174
01> 10528
00> 10155
01> 10465
00> 10169
01> 10519
00> 10186
01> 10568
00> 10191
01> 10592
00> 10173
01> 10531
00> 10150
01> 10484
00> 10146
01> 10526
00> 10173
01> 10544
00> 10209
01> 10574
00> 10155
01> 10523
00> 10138
01> 10476
00> 10159
01> 10500
00> 10183
01> 10569
00> 10159
01> 10634
00> 10166
01> 10509
00> 10136
01> 10449
00> 10154
01> 10514
00> 10212
01> 10546
00> 10198
01> 10558
00> 10160
01> 10495
00> 10138
01> 10439
00> 10149
01> 10469
00> 10198
01> 10541
00> 10192
01> 10558
00> 10141
01> 10532
00> 10107
01> 10431
00> 10143
01> 10479
00> 10206
01> 10540
00> 10166
01> 10512
00> 10132
01> 10496
00> 10139
01> 10456
00> 10159
01> 10483
00> 10195
01> 10539
00> 10182
01> 10558
00> 10136
01> 10474
00> 10119
01> 10416
00> 10150
01> 10471
00> 10166
01> 10548
00> 10162
01> 10533
00> 10151
01> 10463
00> 10146
01> 10461
00> 10143
01> 10472
00> 10164
01> 10513
00> 10168
01> 10537
00> 10139
01> 10492
00> 10120
01> 10423
00> 10132
01> 10464
00> 10153
01> 10549
00> 10141
01> 10526
00> 10115
01> 10465
00> 10100
01> 10416
00> 10112
01> 10424
00> 10139
01> 10496
00> 10184
01> 10533
00> 10139
01> 10479
00> 10104
01> 10421
00> 10112
01> 10444
00> 10155
01> 10513
00> 10153
01> 10518
00> 10118
01> 10486
00> 10103
01> 10413
00> 10139
01> 10436
00> 10169
01> 10516
00> 10168
01> 10535
00> 10140
01> 10480
00> 10108
01> 10406
00> 10128
01> 10438
00> 10158
01> 10503
00> 10164
01> 10522
00> 10136
01> 10442
00> 10114
01> 10385
00> 10129
01> 10434
00> 10156
01> 10499
00> 10159
01> 10528
00> 10134
01> 10468
00> 10122
01> 10399
00> 10139
01> 10438
00> 10156
01> 10484
00> 10159
01> 10498
00> 10141
01> 10454
00> 10125
01> 10399
00> 10139
01> 10434
00> 10153
01> 10487
00> 10158
01> 10507
00> 10146
01> 10457
00> 10126
01> 10398
00> 10145
01> 10440
00> 10156
01> 10483
00> 10159
01> 10501
00> 10141
01> 10448
00> 10126
01> 10394
00> 10149
01> 10435
00> 10165
01> 10493
00> 10168
01> 10514
00> 10146
01> 10461
00> 10129
01> 10403
00> 10136
01> 10434
00> 10159
01> 10483
00> 10168
01> 10500
00> 10138
01> 10436
00> 10122
01> 10384
00> 10139
01> 10423
00> 10167
01> 10481
00> 10169
01> 10512
00> 10146
01> 10461
00> 10126
01> 10395
00> 10140
01> 10423
00> 10163
01> 10457
00> 10173
01> 10483
00> 10148
01> 10440
00> 10126
01> 10381
00> 10138
01> 10419
00> 10162
01> 10482
00> 10171
01> 10513
00> 10156
01> 10463
00> 10133
01> 10399
00> 10121
01> 10424
00> 10147
01> 10476
00> 10161
01> 10495
00> 10139
01> 10438
00> 10123
01> 10375
00> 10138
01> 10426
00> 10163
01> 10486
00> 10159
01> 10508
00> 10136
01> 10446
00> 10118
01> 10390
00> 10133
01> 10418
00> 10147
01> 10486
00> 10156
01> 10510
00> 10134
01> 10444
00> 10124
01> 10381
00> 10138
01> 10422
00> 10133
01> 10494
00> 10164
01> 10506
00> 10144
01> 10430
00> 10120
01> 10385
00> 10138
01> 10422
00> 10168
01> 10476
00> 10179
01> 10507
00> 10150
01> 10451
00> 10120
01> 10376
00> 10141
01> 10414
00> 10155
01> 10482
00> 10166
01> 10496
00> 10149
01> 10422
00> 10131
01> 10373
00> 10136
01> 10409
00> 10159
01> 10476
00> 10175
01> 10519
00> 10153
01> 10460
00> 10131
01> 10387
00> 10143
01> 10428
00> 10142
01> 10477
00> 10171
01> 10503
00> 10152
01> 10454
00> 10135
01> 10387
00> 10154
01> 10419
00> 10159
01> 10493
00> 10168
01> 10509
00> 10158
01> 10456
00> 10110
01> 10385
00> 10148
01> 10431
00> 10183
01> 10489
00> 10182
01> 10509
00> 10159
01> 10450
00> 10139
01> 10376
00> 10139
01> 10401
00> 10161
01> 10473
00> 10171
01> 10507
00> 10155
01> 10448
00> 10134
01> 10383
00> 10129
01> 10412
00> 10163
01> 10476
00> 10184
01> 10526
00> 10159
01> 10464
00> 10130
01> 10397
00> 10145
01> 10415
00> 10165
01> 10471
00> 10173
01> 10505
00> 10149
01> 10446
00> 10130
01> 10380
00> 10146
01> 10417
00> 10152
01> 10475
00> 10174
01> 10502
00> 10142
01> 10437
00> 10127
01> 10368
00> 10137
01> 10401
00> 10163
01> 10466
00> 10179
01> 10491
00> 10163
01> 10445
00> 10139
01> 10376
00> 10146
01> 10409
00> 10172
01> 10474
00> 10178
01> 10503
00> 10147
01> 10440
00> 10124
01> 10361
00> 10141
01> 10394
00> 10174
01> 10459
00> 10176
01> 10491
00> 10153
01> 10441
00> 10128
01> 10369
00> 10144
01> 10410
00> 10166
01> 10480
00> 10171
01> 10504
00> 10146
01> 10450
00> 10130
01> 10368
00> 10139
01> 10393
00> 10166
01> 10469
00> 10183
01> 10509
00> 10157
01> 10463
00> 10124
01> 10389
00> 10139
01> 10414
00> 10160
01> 10463
00> 10172
01> 10497
00> 10143
01> 10425
00> 10108
01> 10358
00> 10128
01> 10403
00> 10161
01> 10476
00> 10163
01> 10508
00> 10135
01> 10457
00> 10114
01> 10393
00> 10129
01> 10426
00> 10154
01> 10477
00> 10169
01> 10509
00> 10151
01> 10449
00> 10122
01> 10373
00> 10145
01> 10418
00> 10167
01> 10488
00> 10165
01> 10511
00> 10146
01> 10449
00> 10120
01> 10373
00> 10127
01> 10391
00> 10144
01> 10446
00> 10162
01> 10483
00> 10137
01> 10433
00> 10108
01> 10356
00> 10109
01> 10383
00> 10134
01> 10459
00> 10153
01> 10503
00> 10134
01> 10452
00> 10104
01> 10356
00> 10112
01> 10382
00> 10136
01> 10445
00> 10143
01> 10481
00> 10123
01> 10429
00> 10105
01> 10355
00> 10099
01> 10380
00> 10123
01> 10427
00> 10140
01> 10461
00> 10114
01> 10416
00> 10095
01> 10346
00> 10099
01> 10368
00> 10130
01> 10439
00> 10139
01> 10476
00> 10121
01> 10421
00> 10101
01> 10354
00> 10110
01> 10382
00> 10133
01> 10447
00> 10135
01> 10473
00> 10106
01> 10411
00> 10078
01> 10325
00> 10080
01> 10341
00> 10106
01> 10405
00> 10124
01> 10449
00> 10106
01> 10395
00> 10076
01> 10318
00> 10083
01> 10342
00> 10109
01> 10408
00> 10131
01> 10441
00> 10111
01> 10399
00> 10091
01> 10323
00> 10096
01> 10349
00> 10118
01> 10401
00> 10136
01> 10438
00> 10109
01> 10386
00> 10076
01> 10304
00> 10095
01> 10351
00> 10124
01> 10427
00> 10131
01> 10453
00> 10110
01> 10398
00> 10084
01> 10316
00> 10095
01> 10338
00> 10114
01> 10410
00> 10134
01> 10451
00> 10114
01> 10398
00> 10086
01> 10313
00> 10094
01> 10331
00> 10119
01> 10402
00> 10136
01> 10443
00> 10110
01> 10386
00> 10087
01> 10305
00> 10097
01> 10332
00> 10119
01> 10399
00> 10129
01> 10434
00> 10106
01> 10373
00> 10081
01> 10304
00> 10092
01> 10334
00> 10126
01> 10413
00> 10138
01> 10454
00> 10117
01> 10394
00> 10090
01> 10308
00> 10101
01> 10329
00> 10128
01> 10411
00> 10142
01> 10450
00> 10124
01> 10398
00> 10091
01> 10309
00> 10096
01> 10328
00> 10122
01> 10390
00> 10134
01> 10434
00> 10122
01> 10390
00> 10091
01> 10307
00> 10101
01> 10331
00> 10126
01> 10399
00> 10148
01> 10444
00> 10135
01> 10393
00> 10107
01> 10314
00> 10117
01> 10339
00> 10140
01> 10399
00> 10152
01> 10438
00> 10127
01> 10387
00> 10093
01> 10297
00> 10108
01> 10321
00> 10134
01> 10399
00> 10153
01> 10445
00> 10133
01> 10389
00> 10103
01> 10303
00> 10111
01> 10334
00> 10141
01> 10406
00> 10158
01> 10448
00> 10134
01> 10384
00> 10100
01> 10284
00> 10105
01> 10306
00> 10130
01> 10381
00> 10157
01> 10426
00> 10142
01> 10391
00> 10109
01> 10305
00> 10118
01> 10311
00> 10134
01> 10371
00> 10146
01> 10421
00> 10131
01> 10384
00> 10092
01> 10286
00> 10096
01> 10299
00> 10133
01> 10376
00> 10154
01> 10436
00> 10136
01> 10376
00> 10104
01> 10286
00> 10106
01> 10309
00> 10138
01> 10375
00> 10153
01> 10419
00> 10136
01> 10368
00> 10099
01> 10282
00> 10116
01> 10310
00> 10136
01> 10382
00> 10148
01> 10422
00> 10128
01> 10373
00> 10096
01> 10277
00> 10104
01> 10291
00> 10139
01> 10368
00> 10155
01> 10418
00> 10135
01> 10371
00> 10102
01> 10278
00> 10103
01> 10283
00> 10128
01> 10361
00> 10149
01> 10411
00> 10130
01> 10366
00> 10095
01> 10277
00> 10098
01> 10284
00> 10123
01> 10347
00> 10142
01> 10396
00> 10121
01> 10348
00> 10096
01> 10269
00> 10106
01> 10297
00> 10131
01> 10362
00> 10143
01> 10404
00> 10121
01> 10365
00> 10098
01> 10274
00> 10114
01> 10294
00> 10138
01> 10363
00> 10151
01> 10411
00> 10134
01> 10369
00> 10103
01> 10270
00> 10105
01> 10286
00> 10124
01> 10369
00> 10141
01> 10412
00> 10129
01> 10362
00> 10098
01> 10281
00> 10101
01> 10299
00> 10126
01> 10364
00> 10145
01> 10430
00> 10133
01> 10382
00> 10106
01> 10275
00> 10109
01> 10286
00> 10133
01> 10356
00> 10146
01> 10414
00> 10130
01> 10378
00> 10103
01> 10281
00> 10107
01> 10283
00> 10134
01> 10352
00> 10139
01> 10403
00> 10132
01> 10366
00> 10105
01> 10286
00> 10103
01> 10302
00> 10123
01> 10362
00> 10142
01> 10401
00> 10124
01> 10359
00> 10088
01> 10266
00> 10101
01> 10289
00> 10129
01> 10366
00> 10141
01> 10406
00> 10121
01> 10366
00> 10086
01> 10274
00> 10091
01> 10286
00> 10131
01> 10359
00> 10146
01> 10403
00> 10117
01> 10347
00> 10090
01> 10262
00> 10096
01> 10278
00> 10107
01> 10344
00> 10122
01> 10399
00> 10114
01> 10359
00> 10073
01> 10278
00> 10076
01> 10283
00> 10098
01> 10333
00> 10121
01> 10388
00> 10104
01> 10361
00> 10069
01> 10285
00> 10059
01> 10256
00> 10096
01> 10330
00> 10121
01> 10410
00> 10117
01> 10374
00> 10094
01> 10289
00> 10071
01> 10286
00> 10066
01> 10315
00> 10081
01> 10355
00> 10079
01> 10326
00> 10053
01> 10235
00> 10086
01> 10269
00> 10112
01> 10344
00> 10089
01> 10377
00> 10053
01> 10317
00> 10031
01> 10219
00> 10070
01> 10256
00> 10101
01> 10353
00> 10106
01> 10392
00> 10086
01> 10326
00> 10040
01> 10221
00> 10046
01> 10233
00> 10076
01> 10296
00> 10098
01> 10356
00> 10074
01> 10321
00> 10043
01> 10219
00> 10054
01> 10238
00> 10058
01> 10289
00> 10077
01> 10337
00> 10069
01> 10298
00> 10053
01> 10228
00> 10081
01> 10255
00> 10067
01> 10296
00> 10053
01> 10331
00> 10052
01> 10282
00> 10051
01> 10228
00> 10056
01> 10236
00> 10085
01> 10303
00> 10107
01> 10363
00> 10083
01> 10319
00> 10059
01> 10230
00> 10089
01> 10252
00> 10096
01> 10304
00> 10128
01> 10379
00> 10148
01> 10375
00> 10109
01> 10279
00> 10094
01> 10268
00> 10123
01> 10326
00> 10149
01> 10383
00> 10129
01> 10344
00> 10096
01> 10258
00> 10110
01> 10277
00> 10128
01> 10333
00> 10150
01> 10392
00> 10153
01> 10361
00> 10125
01> 10283
00> 10114
01> 10294
00> 10144
01> 10368
00> 10168
01> 10411
00> 10136
01> 10343
00> 10113
01> 10280
00> 10133
01> 10295
00> 10158
01> 10352
00> 10151
01> 10387
00> 10128
01> 10366
00> 10124
01> 10301
00> 10139
01> 10316
00> 10159
01> 10356
00> 10178
01> 10401
00> 10169
01> 10380
00> 10134
01> 10278
00> 10123
01> 10271
00> 10131
01> 10346
00> 10188
01> 10405
00> 10181
01> 10363
00> 10151
01> 10273
00> 10147
01> 10289
00> 10183
01> 10383
00> 10194
01> 10431
00> 10173
01> 10386
00> 10126
01> 10262
00> 10123
01> 10279
00> 10159
01> 10372
00> 10219
01> 10464
00> 10195
01> 10419
00> 10144
01> 10314
00> 10134
01> 10291
00> 10144
01> 10349
00> 10183
01> 10431
00> 10192
01> 10410
00> 10161
01> 10308
00> 10157
01> 10303
00> 10183
01> 10378
00> 10192
01> 10417
00> 10169
01> 10369
00> 10153
01> 10299
00> 10168
01> 10326
00> 10201
01> 10398
00> 10198
01> 10421
00> 10179
01> 10376
00> 10154
01> 10301
00> 10163
01> 10318
00> 10188
01> 10377
00> 10196
01> 10413
00> 10185
01> 10396
00> 10171
01> 10329
00> 10183
01> 10343
00> 10189
01> 10390
00> 10184
01> 10425
00> 10184
01> 10400
00> 10163
01> 10307
00> 10183
01> 10333
00> 10207
01> 10408
00> 10210
01> 10442
00> 10187
01> 10401
00> 10173
01> 10333
00> 10183
01> 10345
00> 10201
01> 10407
00> 10221
01> 10448
00> 10221
01> 10429
00> 10194
01> 10344
00> 10192
01> 10332
00> 10201
01> 10367
00> 10218
01> 10421
00> 10209
01> 10410
00> 10182
01> 10338
00> 10186
01> 10347
00> 10206
01> 10408
00> 10219
01> 10451
00> 10203
01> 10415
00> 10169
01> 10333
00> 10167
01> 10334
00> 10201
01> 10398
00> 10220
01> 10439
00> 10204
01> 10396
00> 10173
01> 10313
00> 10175
01> 10334
00> 10197
01> 10406
00> 10211
01> 10452
00> 10196
01> 10411
00> 10171
01> 10315
00> 10175
01> 10319
00> 10196
01> 10389
00> 10209
01> 10433
00> 10194
01> 10395
00> 10161
01> 10310
00> 10163
01> 10313
00> 10179
01> 10380
00> 10197
01> 10431
00> 10188
01> 10394
00> 10150
01> 10295
00> 10153
01> 10296
00> 10171
01> 10358
00> 10191
01> 10404
00> 10179
01> 10376
00> 10144
01> 10288
00> 10151
01> 10294
00> 10175
01> 10363
00> 10192
01> 10410
00> 10187
01> 10384
00> 10154
01> 10299
00> 10152
01> 10295
00> 10174
01> 10356
00> 10191
01> 10413
00> 10176
01> 10377
00> 10150
01> 10275
00> 10151
01> 10268
00> 10174
01> 10343
00> 10193
01> 10401
00> 10171
01> 10368
00> 10135
01> 10267
00> 10140
01> 10266
00> 10162
01> 10338
00> 10184
01> 10395
00> 10173
01> 10358
00> 10142
01> 10266
00> 10149
01> 10263
00> 10168
01> 10326
00> 10186
01> 10390
00> 10175
01> 10370
00> 10146
01> 10280
00> 10141
01> 10278
00> 10167
01> 10344
00> 10172
01> 10379
00> 10154
01> 10335
00> 10132
01> 10250
00> 10135
01> 10259
00> 10165
01> 10339
00> 10182
01> 10389
00> 10157
01> 10351
00> 10125
01> 10267
00> 10130
01> 10269
00> 10154
01> 10338
00> 10175
01> 10387
00> 10164
01> 10356
00> 10127
01> 10263
00> 10126
01> 10262
00> 10148
01> 10324
00> 10169
01> 10378
00> 10163
01> 10349
00> 10136
01> 10254
00> 10137
01> 10249
00> 10156
01> 10325
00> 10176
01> 10385
00> 10160
01> 10354
00> 10128
01> 10256
00> 10132
01> 10246
00> 10152
01> 10306
00> 10174
01> 10366
00> 10168
01> 10344
00> 10135
01> 10256
00> 10132
01> 10249
00> 10147
01> 10306
00> 10167
01> 10368
00> 10158
01> 10349
00> 10127
01> 10260
00> 10129
01> 10259
00> 10153
01> 10326
00> 10168
01> 10378
00> 10161
01> 10350
00> 10126
01> 10251
00> 10121
01> 10249
00> 10148
01> 10321
00> 10171
01> 10372
00> 10159
01> 10341
00> 10133
01> 10256
00> 10133
01> 10263
00> 10153
01> 10324
00> 10176
01> 10377
00> 10168
01> 10348
00> 10135
01> 10254
00> 10134
01> 10249
00> 10154
01> 10309
00> 10166
01> 10354
00> 10154
01> 10330
00> 10125
01> 10250
00> 10134
01> 10253
00> 10152
01> 10303
00> 10173
01> 10361
00> 10163
01> 10331
00> 10127
01> 10231
00> 10126
01> 10223
00> 10151
01> 10290
00> 10164
01> 10348
00> 10151
01> 10336
00> 10125
01> 10263
00> 10128
01> 10266
00> 10148
01> 10319
00> 10168
01> 10359
00> 10157
01> 10334
00> 10127
01> 10246
00> 10142
01> 10248
00> 10162
01> 10316
00> 10178
01> 10372
00> 10161
01> 10335
00> 10132
01> 10243
00> 10126
01> 10234
00> 10148
01> 10307
00> 10171
01> 10361
00> 10167
01> 10337
00> 10136
01> 10253
00> 10130
01> 10244
00> 10152
01> 10303
00> 10184
01> 10366
00> 10178
01> 10337
00> 10142
01> 10240
00> 10154
01> 10253
00> 10178
01> 10329
00> 10190
01> 10369
00> 10182
01> 10340
00> 10148
01> 10243
00> 10147
01> 10238
00> 10169
01> 10301
00> 10189
01> 10354
00> 10171
01> 10321
00> 10142
01> 10233
00> 10144
01> 10232
00> 10166
01> 10309
00> 10191
01> 10364
00> 10184
01> 10340
00> 10145
01> 10245
00> 10141
01> 10243
00> 10167
01> 10308
00> 10188
01> 10370
00> 10178
01> 10346
00> 10144
01> 10253
00> 10143
01> 10237
00> 10167
01> 10301
00> 10183
01> 10355
00> 10176
01> 10329
00> 10154
01> 10239
00> 10151
01> 10236
00> 10171
01> 10293
00> 10189
01> 10348
00> 10178
01> 10336
00> 10148
01> 10257
00> 10147
01> 10261
00> 10169
01> 10325
00> 10185
01> 10369
00> 10169
01> 10344
00> 10125
01> 10235
00> 10133
01> 10231
00> 10170
01> 10306
00> 10180
01> 10364
00> 10169
01> 10346
00> 10133
01> 10249
00> 10128
01> 10209
00> 10153
01> 10283
00> 10176
01> 10356
00> 10163
01> 10341
00> 10116
01> 10243
00> 10112
01> 10227
00> 10160
01> 10306
00> 10174
01> 10365
00> 10173
01> 10355
00> 10134
01> 10258
00> 10130
01> 10221
00> 10158
01> 10298
00> 10188
01> 10368
00> 10162
01> 10344
00> 10134
01> 10239
00> 10148
01> 10253
00> 10175
01> 10308
00> 10197
01> 10368
00> 10183
01> 10349
00> 10144
01> 10241
00> 10141
01> 10243
00> 10161
01> 10313
00> 10178
01> 10351
00> 10176
01> 10317
00> 10148
01> 10239
00> 10154
01> 10243
00> 10149
01> 10310
00> 10184
01> 10374
00> 10179
01> 10364
00> 10146
01> 10256
00> 10149
01> 10248
00> 10157
01> 10316
00> 10181
01> 10358
00> 10180
01> 10339
00> 10152
01> 10249
00> 10141
01> 10248
00> 10155
01> 10321
00> 10164
01> 10379
00> 10192
01> 10351
00> 10143
01> 10228
00> 10146
01> 10199
00> 10159
01> 10278
00> 10174
01> 10355
00> 10165
01> 10336
00> 10141
01> 10241
00> 10141
01> 10253
00> 10144
01> 10311
00> 10152
01> 10356
00> 10168
01> 10338
00> 10125
01> 10270
00> 10117
01> 10261
00> 10173
01> 10334
00> 10177
01> 10374
00> 10171
01> 10359
00> 10119
01> 10236
00> 10111
01> 10220
00> 10138
01> 10286
00> 10164
01> 10328
00> 10138
01> 10329
00> 10049
01> 10235
00> 10099
01> 10245
00> 10136
01> 10291
00> 10126
01> 10323
00> 10174
01> 10310
00> 10143
01> 10268
00> 10140
01> 10266
00> 10136
01> 10328
00> 10123
01> 10323
00> 10129
01> 10347
00> 9988
01> 10211
00> 10103
01> 10175
00> 10131
01> 10283
00> 10184
01> 10332
00> 10107
01> 10346
00> 10054
01> 10219
00> 10156
01> 10227
00> 10168
01> 10276
00> 10154
01> 10299
00> 10103
01> 10248
00> 10112
01> 10216
00> 10116
01> 10220
00> 10088
01> 10256
00> 10159
01> 10327
00> 10188
01> 10374
00> 10117
01> 10261
00> 10127
01> 10233
00> 10146
01> 10258
00> 10162
01> 10324
00> 10131
01> 10318
00> 10104
01> 10189
00> 10152
01> 10225
00> 10145
01> 10278
00> 10161
01> 10319
00> 10149
01> 10336
00> 10129
01> 10229
00> 10108
01> 10204
00> 10151
01> 10289
00> 10156
01> 10339
00> 10163
01> 10314
00> 10141
01> 10232
00> 10154
01> 10241
00> 10159
01> 10290
00> 10173
01> 10342
00> 10145
01> 10319
00> 10104
01> 10191
00> 10114
01> 10198
00> 10109
01> 10276
00> 10148
01> 10320
00> 10169
01> 10306
00> 10138
01> 10213
00> 10098
01> 10169
00> 10121
01> 10239
00> 10166
01> 10320
00> 10149
01> 10297
