# SEGGER J-Link RTT Viewer V6.62 Terminal Log File
# Compiled: 16:34:01 on Jan 24 2020
# Logging started @ 20 Jun 2024 16:23:50

00> 7563
01> -14820
00> 7539
01> -14790
00> 7534
01> -14766
00> 7565
01> -14774
00> 7577
01> -14794
00> 7561
01> -14805
00> 7534
01> -14791
00> 7524
01> -14774
00> 7549
01> -14778
00> 7579
01> -14799
00> 7566
01> -14815
00> 7536
01> -14799
00> 7533
01> -14778
00> 7561
01> -14784
00> 7579
01> -14801
00> 7568
01> -14802
00> 7533
01> -14781
00> 7521
01> -14760
00> 7554
01> -14762
00> 7586
01> -14777
00> 7583
01> -14780
00> 7554
01> -14769
00> 7543
01> -14763
00> 7566
01> -14767
00> 7579
01> -14785
00> 7564
01> -14791
00> 7539
01> -14774
00> 7541
01> -14756
00> 7570
01> -14771
00> 7589
01> -14789
00> 7571
01> -14787
00> 7544
01> -14769
00> 7540
01> -14754
00> 7567
01> -14760
00> 7587
01> -14786
00> 7579
01> -14779
00> 7548
01> -14758
00> 7543
01> -14744
00> 7561
01> -14754
00> 7584
01> -14768
00> 7569
01> -14784
00> 7549
01> -14778
00> 7541
01> -14762
00> 7565
01> -14761
00> 7593
01> -14769
00> 7586
01> -14766
00> 7552
01> -14741
00> 7546
01> -14722
00> 7580
01> -14738
00> 7608
01> -14772
00> 7593
01> -14786
00> 7555
01> -14764
00> 7546
01> -14736
00> 7584
01> -14736
00> 7608
01> -14757
00> 7594
01> -14762
00> 7559
01> -14750
00> 7551
01> -14746
00> 7579
01> -14757
00> 7606
01> -14771
00> 7598
01> -14764
00> 7564
01> -14742
00> 7563
01> -14717
00> 7577
01> -14731
00> 7603
01> -14743
00> 7596
01> -14743
00> 7575
01> -14724
00> 7562
01> -14721
00> 7576
01> -14735
00> 7597
01> -14750
00> 7598
01> -14746
00> 7577
01> -14727
00> 7579
01> -14707
00> 7604
01> -14711
00> 7619
01> -14736
00> 7606
01> -14746
00> 7577
01> -14719
00> 7570
01> -14694
00> 7601
01> -14693
00> 7627
01> -14713
00> 7604
01> -14730
00> 7573
01> -14717
00> 7569
01> -14706
00> 7591
01> -14715
00> 7615
00> 
01> -14729
00> 7606
01> -14734
00> 7576
01> -14718
00> 7561
01> -14706
00> 7586
01> -14701
00> 7610
01> -14711
00> 7602
01> -14713
00> 7573
01> -14699
00> 7565
01> -14692
00> 7602
01> -14700
00> 7614
01> -14723
00> 7599
01> -14733
00> 7569
01> -14716
00> 7567
01> -14696
00> 7598
01> -14695
00> 7621
01> -14722
00> 7603
01> -14740
00> 7563
01> -14724
00> 7554
01> -14700
00> 7590
01> -14698
00> 7619
01> -14714
00> 7607
01> -14715
00> 7576
01> -14698
00> 7565
01> -14694
00> 7594
01> -14701
00> 7619
01> -14714
00> 7611
01> -14713
00> 7589
01> -14686
00> 7578
01> -14675
00> 7607
01> -14680
00> 7628
01> -14700
00> 7605
01> -14707
00> 7565
01> -14698
00> 7563
01> -14676
00> 7593
01> -14682
00> 7616
01> -14714
00> 7608
01> -14709
00> 7585
01> -14681
00> 7581
01> -14656
00> 7599
01> -14654
00> 7628
01> -14654
00> 7621
01> -14659
00> 7587
01> -14646
00> 7571
01> -14641
00> 7590
01> -14655
00> 7621
01> -14674
00> 7613
01> -14686
00> 7578
01> -14671
00> 7580
01> -14661
00> 7608
01> -14678
00> 7635
01> -14699
00> 7624
01> -14696
00> 7585
01> -14671
00> 7559
01> -14661
00> 7582
01> -14672
00> 7603
01> -14689
00> 7594
01> -14687
00> 7564
01> -14664
00> 7561
01> -14651
00> 7583
01> -14667
00> 7617
01> -14687
00> 7603
01> -14702
00> 7563
01> -14687
00> 7561
01> -14661
00> 7589
01> -14659
00> 7613
01> -14673
00> 7609
01> -14669
00> 7580
01> -14656
00> 7574
01> -14646
00> 7596
01> -14654
00> 7615
01> -14676
00> 7595
01> -14677
00> 7570
01> -14646
00> 7562
01> -14623
00> 7587
01> -14639
00> 7626
01> -14678
00> 7628
01> -14692
00> 7588
01> -14676
00> 7569
01> -14656
00> 7590
01> -14662
00> 7619
01> -14681
00> 7609
01> -14693
00> 7573
01> -14686
00> 7553
01> -14679
00> 7571
01> -14684
00> 7601
01> -14694
00> 7603
01> -14686
00> 7574
01> -14670
00> 7567
01> -14652
00> 7592
01> -14661
00> 7614
01> -14682
00> 7619
01> -14690
00> 7583
01> -14684
00> 7564
01> -14667
00> 7589
01> -14658
00> 7619
01> -14671
00> 7601
01> -14679
00> 7567
01> -14666
00> 7566
01> -14644
00> 7597
01> -14652
00> 7624
01> -14686
00> 7614
01> -14685
00> 7575
01> -14652
00> 7568
01> -14621
00> 7599
01> -14630
00> 7617
01> -14669
00> 7599
01> -14682
00> 7568
01> -14666
00> 7562
01> -14650
00> 7589
01> -14663
00> 7615
01> -14683
00> 7611
01> -14685
00> 7583
01> -14662
00> 7571
01> -14638
00> 7593
01> -14637
00> 7614
01> -14665
00> 7607
01> -14677
00> 7581
01> -14668
00> 7573
01> -14661
00> 7597
01> -14673
00> 7614
01> -14689
00> 7602
01> -14685
00> 7569
01> -14661
00> 7554
01> -14643
00> 7583
01> -14656
00> 7616
01> -14682
00> 7598
01> -14698
00> 7558
01> -14689
00> 7544
01> -14669
00> 7572
01> -14666
00> 7591
01> -14689
00> 7583
01> -14699
00> 7558
01> -14698
00> 7557
01> -14684
00> 7574
01> -14695
00> 7601
01> -14710
00> 7598
01> -14723
00> 7564
01> -14712
00> 7546
01> -14687
00> 7574
01> -14691
00> 7601
01> -14721
00> 7593
01> -14724
00> 7561
01> -14699
00> 7548
00> 7819
01> -17470
00> 7846
01> -17456
00> 7881
01> -17466
00> 7875
01> -17465
00> 7833
01> -17444
00> 7800
01> -17431
00> 7828
01> -17437
00> 7868
01> -17463
00> 7855
01> -17482
00> 7818
01> -17474
00> 7801
01> -17443
00> 7829
01> -17429
00> 7865
01> -17464
00> 7860
01> -17512
00> 7836
01> -17498
00> 7818
01> -17453
00> 7839
01> -17429
00> 7868
01> -17434
00> 7871
01> -17441
00> 7838
01> -17431
00> 7813
01> -17415
00> 7827
01> -17429
00> 7854
01> -17461
00> 7863
01> -17469
00> 7833
01> -17442
00> 7808
01> -17414
00> 7824
01> -17416
00> 7859
01> -17439
00> 7872
01> -17452
00> 7859
01> -17436
00> 7831
01> -17422
00> 7819
01> -17427
00> 7835
01> -17454
00> 7853
01> -17461
00> 7838
01> -17432
00> 7818
01> -17406
00> 7810
01> -17404
00> 7840
01> -17424
00> 7850
01> -17445
00> 7823
01> -17427
00> 7808
01> -17409
00> 7818
01> -17426
00> 7844
01> -17459
00> 7847
01> -17462
00> 7826
01> -17424
00> 7811
01> -17401
00> 7823
01> -17408
00> 7848
01> -17421
00> 7853
01> -17429
00> 7825
01> -17422
00> 7794
01> -17415
00> 7803
01> -17432
00> 7841
01> -17445
00> 7844
01> -17453
00> 7807
01> -17441
00> 7779
01> -17405
00> 7805
01> -17390
00> 7844
01> -17419
00> 7841
01> -17463
00> 7803
01> -17452
00> 7783
01> -17405
00> 7813
01> -17386
00> 7847
01> -17399
00> 7854
01> -17406
00> 7823
01> -17400
00> 7802
01> -17389
00> 7826
01> -17401
00> 7861
01> -17423
00> 7868
01> -17439
00> 7828
01> -17430
00> 7806
01> -17402
00> 7831
01> -17394
00> 7858
01> -17423
00> 7859
01> -17445
00> 7828
01> -17421
00> 7807
01> -17378
00> 7818
01> -17372
00> 7849
01> -17392
00> 7851
01> -17403
00> 7835
01> -17385
00> 7822
01> -17356
00> 7856
01> -17335
00> 7877
01> -17345
00> 7880
01> -17361
00> 7869
01> -17336
00> 7843
01> -17315
00> 7884
01> -17287
00> 7936
01> -17276
00> 7926
01> -17275
00> 7885
01> -17242
00> 7880
01> -17169
00> 7906
01> -17121
00> 7947
01> -17090
00> 7972
01> -17052
00> 7953
01> -17001
00> 7946
01> -16897
00> 7991
01> -16759
00> 8045
01> -16668
00> 8066
01> -16608
00> 8049
01> -16563
00> 8021
01> -16548
00> 8018
01> -16534
00> 8048
01> -16519
00> 8041
01> -16522
00> 7990
01> -16521
00> 7959
01> -16511
00> 7955
01> -16520
00> 7969
01> -16566
00> 7968
01> -16609
00> 7904
01> -16617
00> 7857
01> -16592
00> 7856
01> -16592
00> 7878
01> -16627
00> 7870
01> -16673
00> 7821
01> -16706
00> 7785
01> -16713
00> 7793
01> -16727
00> 7818
01> -16776
00> 7804
01> -16821
00> 7771
01> -16814
00> 7738
01> -16795
00> 7728
01> -16807
00> 7739
01> -16843
00> 7731
01> -16886
00> 7699
01> -16909
00> 7657
01> -16920
00> 7654
01> -16935
00> 7680
01> -16951
00> 7679
01> -16977
00> 7655
01> -16981
00> 7634
01> -16992
00> 7635
01> -17000
00> 7657
01> -17012
00> 7665
01> -17026
00> 7639
01> -17015
00> 7613
01> -17001
00> 7621
01> -17009
00> 7651
01> -17044
00> 7666
01> -17061
00> 7632
01> -17055
00> 7594
01> -17057
00> 7603
01> -17060
00> 7641
01> -17076
00> 7648
01> -17089
00> 7626
01> -17074
00> 7592
01> -17062
00> 7589
01> -17075
00> 7615
01> -17106
00> 7633
01> -17115
00> 7615
01> -17099
00> 7583
01> -17088
00> 7588
01> -17089
00> 7627
01> -17107
00> 7637
01> -17121
00> 7609
01> -17115
00> 7576
01> -17109
00> 7582
01> -17109
00> 7616
01> -17109
00> 7623
01> -17122
00> 7596
01> -17126
00> 7563
01> -17131
00> 7571
01> -17119
00> 7606
01> -17107
00> 7614
01> -17114
00> 7596
01> -17111
00> 7574
01> -17092
00> 7583
01> -17082
00> 7616
01> -17108
00> 7618
01> -17137
00> 7586
01> -17127
00> 7561
01> -17112
00> 7578
01> -17111
00> 7607
01> -17131
00> 7613
01> -17156
00> 7583
01> -17152
00> 7549
01> -17134
00> 7551
01> -17121
00> 7595
01> -17119
00> 7610
01> -17132
00> 7591
01> -17126
00> 7560
01> -17112
00> 7556
01> -17114
00> 7576
01> -17134
00> 7589
01> -17155
00> 7571
01> -17161
00> 7541
01> -17129
00> 7546
01> -17108
00> 7584
01> -17118
00> 7599
01> -17144
00> 7570
01> -17150
00> 7548
01> -17139
00> 7557
01> -17132
00> 7583
01> -17144
00> 7601
01> -17156
00> 7573
01> -17151
00> 7536
01> -17136
00> 7546
01> -17130
00> 7586
01> -17144
00> 7586
01> -17166
00> 7568
01> -17157
00> 7539
01> -17133
00> 7546
01> -17116
00> 7578
01> -17116
00> 7596
01> -17132
00> 7572
01> -17126
00> 7550
01> -17109
00> 7553
01> -17104
00> 7574
01> -17116
00> 7583
01> -17132
00> 7589
01> -17121
00> 7569
01> -17110
00> 7570
01> -17102
00> 7586
01> -17115
00> 7601
01> -17122
00> 7582
01> -17121
00> 7563
01> -17087
00> 7582
01> -17086
00> 7601
01> -17094
00> 7618
01> -17098
00> 7592
01> -17099
00> 7568
01> -17081
00> 7574
01> -17073
00> 7600
01> -17082
00> 7624
01> -17076
00> 7613
01> -17082
00> 7552
01> -17092
00> 7560
01> -17081
00> 7591
01> -17091
00> 7605
01> -17096
00> 7611
01> -17072
00> 7578
01> -17040
00> 7575
01> -17042
00> 7610
01> -17072
00> 7622
01> -17101
00> 7605
01> -17080
00> 7570
01> -17067
00> 7579
01> -17062
00> 7640
01> -17066
00> 7662
01> -17086
00> 7614
01> -17081
00> 7550
01> -17054
00> 7567
01> -17046
00> 7593
01> -17057
00> 7591
01> -17100
00> 7579
01> -17078
00> 7560
01> -17056
00> 7555
01> -17049
00> 7578
01> -17090
00> 7611
01> -17107
00> 7611
01> -17096
00> 7576
01> -17067
00> 7559
01> -17065
00> 7604
01> -17054
00> 7611
01> -17074
00> 7566
01> -17088
00> 7618
01> -17059
00> 7624
01> -17056
00> 7606
01> -17069
00> 7598
01> -17089
00> 7576
01> -17093
00> 7536
01> -17089
00> 7545
01> -17061
00> 7586
01> -17066
00> 7611
01> -17094
00> 7579
01> -17096
00> 7554
01> -17085
00> 7569
01> -17069
00> 7588
01> -17075
00> 7607
01> -17082
00> 7575
01> -17082
00> 7580
01> -17073
00> 7600

00> 7584
01> -17064
00> 7614
01> -17074
00> 7606
01> -17079
00> 7576
01> -17076
00> 7567
01> -17089
00> 7592
01> -17116
00> 7596
01> -17127
00> 7568
01> -17148
00> 7567
01> -17121
00> 7532
01> -17102
00> 7539
01> -17131
00> 7589
01> -17154
00> 7552
01> -17165
00> 7526
01> -17149
00> 7545
01> -17118
00> 7545
01> -17132
00> 7564
01> -17154
00> 7533
01> -17144
00> 7510
01> -17152
00> 7521
01> -17138
00> 7531
01> -17156
00> 7568
01> -17158
00> 7565
01> -17140
00> 7524
01> -17118
00> 7543
01> -17108
00> 7578
01> -17115
00> 7569
01> -17142
00> 7578
01> -17136
00> 7526
01> -17116
00> 7523
01> -17106
00> 7563
01> -17117
00> 7574
01> -17102
00> 7549
01> -17114
00> 7545
01> -17119
00> 7558
01> -17086
00> 7564
01> -17088
00> 7574
01> -17129
00> 7548
01> -17144
00> 7544
01> -17106
00> 7529
01> -17098
00> 7555
01> -17122
00> 7583
01> -17137
00> 7532
01> -17138
00> 7502
01> -17067
00> 7544
01> -17095
00> 7563
01> -17126
00> 7549
01> -17136
00> 7549
01> -17128
00> 7556
01> -17096
00> 7568
01> -17015
00> 7587
01> -17037
00> 7579
01> -17092
00> 7581
01> -17121
00> 7564
01> -17072
00> 7544
01> -17035
00> 7561
01> -17058
00> 7548
01> -17095
00> 7549
01> -17095
00> 7547
01> -17078
00> 7521
01> -17094
00> 7530
01> -17090
00> 7569
01> -17054
00> 7473
01> -17064
00> 7509
01> -17016
00> 7564
01> -16986
00> 7564
01> -17024
00> 7611
01> -17046
00> 7583
01> -17051
00> 7507
01> -17038
00> 7518
01> -17016
00> 7558
01> -17014
00> 7511
01> -17039
00> 7496
01> -17066
00> 7566
01> -16989
00> 7548
01> -16996
00> 7567
01> -17004
00> 7575
01> -16977
00> 7551
01> -16980
00> 7556
01> -16966
00> 7518
01> -16866
00> 7604
01> -16861
00> 7613
01> -16871
00> 7633
01> -16862
00> 7616
01> -16837
00> 7582
01> -16841
00> 7561
01> -16808
00> 7618
01> -16852
00> 7640
01> -16853
00> 7578
01> -16794
00> 7570
01> -16789
00> 7654
01> -16804
00> 7654
01> -16806
00> 7623
01> -16846
00> 7612
01> -16812
00> 7646
01> -16757
00> 7706
01> -16712
00> 7695
01> -16697
00> 7677
01> -16787
00> 7654
01> -16775
00> 7616
01> -16742
00> 7603
01> -16731
00> 7689
01> -16786
00> 7683
01> -16787
00> 7660
01> -16737
00> 7701
01> -16704
00> 7708
01> -16702
00> 7658
01> -16762
00> 7625
01> -16811
00> 7616
01> -16760
00> 7649
01> -16724
00> 7694
01> -16721
00> 7652
01> -16712
00> 7673
01> -16773
00> 7654
01> -16750
00> 7626
01> -16747
00> 7634
01> -16749
00> 7666
01> -16746
00> 7660
01> -16774
00> 7640
01> -16748
00> 7619
01> -16748
00> 7624
01> -16776
00> 7646
01> -16785
00> 7640
01> -16787
00> 7618
01> -16771
00> 7589
01> -16774
00> 7598
01> -16793
00> 7643
01> -16781
00> 7639
01> -16775
00> 7626
01> -16761
00> 7619
01> -16749
00> 7636
01> -16754
00> 7653
01> -16765
00> 7643
01> -16774
00> 7630
01> -16755
00> 7624
01> -16741
00> 7658
01> -16737
00> 7673
01> -16752
00> 7649
01> -16771
00> 7632
01> -16742
00> 7625
01> -16715
00> 7627
01> -16742
00> 7656
01> -16752
00> 7653
01> -16748
00> 7642
01> -16717
00> 7649
01> -16697
00> 7661
01> -16707
00> 7659
01> -16744
00> 7641
01> -16757
00> 7623
01> -16732
00> 7657
01> -16684
00> 7677
01> -16684
00> 7685
01> -16704
00> 7678
01> -16716
00> 7643
01> -16711
00> 7632
01> -16682
00> 7651
01> -16683
00> 7682
01> -16697
00> 7674
01> -16713
00> 7661
01> -16682
00> 7646
01> -16653
00> 7653
01> -16662
00> 7681
01> -16666
00> 7689
01> -16661
00> 7674
01> -16646
00> 7656
01> -16641
00> 7661
01> -16646
00> 7707
01> -16639
00> 7699
01> -16654
00> 7646
01> -16674
00> 7620
01> -16681
00> 7651
01> -16676
00> 7673
01> -16690
00> 7646
01> -16721
00> 7612
01> -16711
00> 7599
01> -16702
00> 7619
01> -16717
00> 7641
01> -16745
00> 7631
01> -16768
00> 7597
01> -16764
00> 7568
01> -16765
00> 7586
01> -16771
00> 7610
01> -16777
00> 7603
01> -16782
00> 7580
01> -16768
00> 7582
01> -16745
00> 7604
01> -16743
00> 7622
01> -16757
00> 7617
01> -16766
00> 7594
01> -16749
00> 7579
01> -16734
00> 7597
01> -16740
00> 7621
01> -16754
00> 7620
01> -16759
00> 7584
01> -16763
00> 7574
01> -16737
00> 7593
01> -16721
00> 7618
01> -16726
00> 7618
01> -16731
00> 7594
01> -16720
00> 7593
01> -16702
00> 7608
01> -16707
00> 7618
01> -16732
00> 7616
01> -16734
00> 7603
01> -16717
00> 7591
01> -16692
00> 7601
01> -16699
00> 7613
01> -16716
00> 7608
01> -16728
00> 7584
01> -16722
00> 7579
01> -16696
00> 7602
01> -16687
00> 7615
01> -16710
00> 7607
01> -16736
00> 7573
01> -16738
00> 7555
01> -16744
00> 7574
01> -16768
00> 7598
01> -16804
00> 7578
01> -16831
00> 7544
01> -16841
00> 7526
01> -16842
00> 7539
01> -16863
00> 7558
01> -16893
00> 7558
01> -16921
00> 7534
01> -16935
00> 7517
01> -16927
00> 7531
01> -16941
00> 7546
01> -16967
00> 7537
01> -16990
00> 7516
01> -16982
00> 7510
01> -16970
00> 7519
01> -16980
00> 7543
01> -16997
00> 7541
01> -17006
00> 7514
01> -16992
00> 7502
01> -16971
00> 7524
01> -16956
00> 7543
01> -16974
00> 7539
01> -16988
00> 7517
01> -16981
00> 7505
01> -16961
00> 7529
01> -16951
00> 7563
01> -16954
00> 7558
01> -16959
00> 7516
01> -16956
00> 7498
01> -16945
00> 7521
01> -16939
00> 7556
01> -16955
00> 7559
01> -16969
00> 7531
01> -16957
00> 7518
01> -16936
00> 7534
01> -16932
00> 7561
01> -16947
00> 7554
01> -16955
00> 7524
01> -16946
00> 7515
01> -16923
00> 7538
01> -16917
00> 7563
01> -16931
00> 7563
01> -16938
00> 7526
01> -16923
00> 7511
01> -16901
00> 7535
01> -16896
00> 7562
01> -16913
00> 7566
01> -16917
00> 7548
01> -16902
00> 7534
01> -16892
00> 7543
01> -16887
00> 7566
01> -16888
00> 7563
01> -16889
00> 7532
01> -16890
00> 7521
01> -16876
00> 7541
01> -16874
00> 7567
01> -16883
00> 7564
01> -16893
00> 7534
01> -16882
00> 7522
01> -16863
00> 7533
01> -16871
00> 7556
01> -16897
00> 7552
01> -16916
00> 7534
01> -16906
00> 7527
01> -16886
00> 7559
01> -16870
00> 7588
01> -16882
00> 7586
01> -16893
00> 7571
01> -16886
00> 7541
01> -16867
00> 7554
01> -16866
00> 7584
01> -16891
00> 7588
01> -16900
00> 7567
01> -16880
00> 7547
01> -16852
00> 7556
01> -16842
00> 7591
01> -16850
00> 7601
01> -16859
00> 7576
01> -16849
00> 7555
01> -16817
00> 7559
01> -16819
00> 7576
01> -16849
00> 7573
01> -16864
00> 7551
01> -16847
00> 7541
01> -16823
00> 7565
01> -16808
00> 7583
01> -16821
00> 7572
01> -16827
00> 7559
01> -16818
00> 7561
01> -16807
00> 7585
01> -16813
00> 7607
01> -16831
00> 7601
01> -16834
00> 7560
01> -16824
00> 7521
01> -16809
00> 7531
01> -16797
00> 7578
01> -16794
00> 7592
01> -16806
00> 7556
01> -16812
00> 7532
01> -16799
00> 7546
01> -16795
00> 7571
01> -16807
00> 7570
01> -16821
00> 7559
01> -16810
00> 7561
01> -16785
00> 7580
01> -16785
00> 7604
01> -16797
00> 7597
01> -16807
00> 7566
01> -16797
00> 7546
01> -16774
00> 7567
01> -16772
00> 7594
01> -16800
00> 7599
01> -16814
00> 7578
01> -16794
00> 7557
01> -16764
00> 7566
01> -16749
00> 7583
01> -16760
00> 7588
01> -16763
00> 7566
01> -16754
00> 7551
01> -16746
00> 7561
01> -16743
00> 7582
01> -16754
00> 7582
01> -16767
00> 7564
01> -16752
00> 7558
01> -16725
00> 7566
01> -16720
00> 7594
01> -16736
00> 7612
01> -16748
00> 7593
01> -16739
00> 7560
01> -16731
00> 7558
01> -16737
00> 7584
01> -16747
00> 7599
01> -16750
00> 7587
01> -16734
00> 7578
01> -16694
00> 7590
01> -16676
00> 7611
01> -16691
00> 7614
01> -16701
00> 7594
01> -16694
00> 7571
01> -16685
00> 7579
01> -16691
00> 7603
01> -16711
00> 7604
01> -16724
00> 7581
01> -16704
00> 7580
01> -16672
00> 7601
01> -16662
00> 7626
01> -16679
00> 7622
01> -16695
00> 7599
01> -16678
00> 7577
01> -16664
00> 7597
01> -16649
00> 7624
01> -16665
00> 7616
01> -16689
00> 7592
01> -16680
00> 7575
01> -16675
00> 7584
01> -16681
00> 7610
01> -16702
00> 7609
01> -16717
00> 7583
01> -16711
00> 7566
01> -16689
00> 7584
01> -16687
00> 7613
01> -16698
00> 7612
01> -16706
00> 7594
01> -16689
00> 7583
01> -16668
00> 7586
01> -16668
00> 7609
01> -16681
00> 7608
01> -16696
00> 7586
01> -16684
00> 7574
01> -16666
00> 7579
01> -16669
00> 7609
01> -16679
00> 7613
01> -16687
00> 7589
01> -16676
00> 7572
01> -16659
00> 7577
01> -16660
00> 7606
01> -16668
00> 7607
01> -16694
00> 7569
01> -16707
00> 7549
01> -16686
00> 7564
01> -16674
00> 7602
01> -16689
00> 7611
01> -16710
00> 7591
01> -16702
00> 7561
01> -16686
00> 7563
01> -16680
00> 7594
01> -16685
00> 7604
01> -16701
00> 7576
01> -16695
00> 7559
01> -16682
00> 7561
01> -16675
00> 7582
01> -16681
00> 7594
01> -16694
00> 7572
01> -16692
00> 7555
01> -16673
00> 7568
01> -16664
00> 7587
01> -16683
00> 7587
01> -16704
00> 7561
01> -16696
00> 7538
01> -16686
00> 7543
01> -16679
00> 7572
01> -16682
00> 7583
01> -16696
00> 7563
01> -16695
00> 7544
01> -16692
00> 7555
01> -16684
00> 7579
01> -16692
00> 7589
01> -16703
00> 7572
01> -16696
00> 7546
01> -16678
00> 7558
01> -16667
00> 7589
01> -16679
00> 7596
01> -16699
00> 7572
01> -16691
00> 7550
01> -16674
00> 7563
01> -16659
00> 7587
01> -16674
00> 7601
01> -16687
00> 7590
01> -16680
00> 7571
01> -16659
00> 7570
01> -16660
00> 7591
01> -16676
00> 7595
01> -16682
00> 7579
01> -16658
00> 7559
01> -16637
00> 7558
01> -16639
00> 7579
01> -16662
00> 7583
01> -16681
00> 7563
01> -16674
00> 7549
01> -16646
00> 7561
01> -16637
00> 7584
01> -16652
00> 7583
01> -16672
00> 7559
01> -16676
00> 7553
01> -16656
00> 7558
01> -16646
00> 7575
01> -16659
00> 7579
01> -16673
00> 7564
01> -16667
00> 7546
01> -16652
00> 7556
01> -16636
00> 7585
01> -16647
00> 7588
01> -16671
00> 7564
01> -16664
00> 7548
01> -16631
00> 7548
01> -16620
00> 7575
01> -16634
00> 7593
01> -16650
00> 7573
01> -16652
00> 7546
01> -16644
00> 7551
01> -16644
00> 7567
01> -16654
00> 7575
01> -16659
00> 7563
01> -16646
00> 7552
01> -16616
00> 7551
01> -16615
00> 7566
01> -16643
00> 7575
01> -16659
00> 7561
01> -16647
00> 7546
01> -16614
00> 7551
01> -16604
00> 7568
01> -16620
00> 7563
01> -16637
00> 7541
01> -16630
00> 7529
01> -16613
00> 7541
01> -16602
00> 7565
01> -16619
00> 7578
01> -16631
00> 7565
01> -16626
00> 7546
01> -16612
00> 7552
01> -16595
00> 7563
01> -16606
00> 7559
01> -16631
00> 7539
01> -16633
00> 7524
01> -16611
00> 7533
01> -16598
00> 7558
01> -16610
00> 7571
01> -16621
00> 7553
01> -16616
00> 7529
01> -16598
00> 7534
01> -16599
00> 7549
01> -16617
00> 7559
01> -16632
00> 7548
01> -16632
00> 7520

00> 7529
01> -16595
00> 7554
01> -16605
00> 7564
01> -16631
00> 7551
01> -16626
00> 7532
01> -16600
00> 7542
01> -16592
00> 7560
01> -16607
00> 7566
01> -16627
00> 7545
01> -16626
00> 7526
01> -16598
00> 7531
01> -16586
00> 7551
01> -16589
00> 7560
01> -16599
00> 7546
01> -16596
00> 7540
01> -16572
00> 7536
01> -16564
00> 7551
01> -16573
00> 7566
01> -16582
00> 7549
01> -16580
00> 7531
01> -16567
00> 7538
01> -16571
00> 7571
01> -16563
00> 7583
01> -16547
00> 7573
01> -16519
00> 7555
01> -16489
00> 7556
01> -16476
00> 7584
01> -16479
00> 7598
01> -16466
00> 7589
01> -16422
00> 7574
01> -16372
00> 7573
01> -16344
00> 7604
01> -16333
00> 7614
01> -16341
00> 7596
01> -16339
00> 7572
01> -16334
00> 7573
01> -16330
00> 7603
01> -16337
00> 7619
01> -16357
00> 7609
01> -16357
00> 7596
01> -16348
00> 7595
01> -16340
00> 7618
01> -16344
00> 7629
01> -16364
00> 7621
01> -16371
00> 7604
01> -16357
00> 7585
01> -16363
00> 7595
01> -16383
00> 7613
01> -16389
00> 7599
01> -16378
00> 7581
01> -16359
00> 7570
01> -16352
00> 7596
01> -16369
00> 7636
01> -16384
00> 7616
01> -16377
00> 7581
01> -16369
00> 7583
01> -16354
00> 7620
01> -16348
00> 7628
01> -16371
00> 7620
01> -16389
00> 7589
01> -16375
00> 7581
01> -16367
00> 7603
01> -16379
00> 7620
01> -16393
00> 7593
01> -16392
00> 7580
01> -16384
00> 7592
01> -16369
00> 7621
01> -16382
00> 7631
01> -16402
00> 7628
01> -16396
00> 7603
01> -16377
00> 7585
01> -16382
00> 7603
01> -16396
00> 7614
01> -16410
00> 7599
01> -16409
00> 7583
01> -16384
00> 7587
01> -16376
00> 7605
01> -16379
00> 7618
01> -16395
00> 7596
01> -16406
00> 7573
01> -16389
00> 7584
01> -16369
00> 7594
01> -16390
00> 7607
01> -16403
00> 7598
01> -16396
00> 7573
01> -16379
00> 7569
01> -16375
00> 7600
01> -16388
00> 7623
01> -16404
00> 7602
01> -16407
00> 7572
01> -16396
00> 7570
01> -16386
00> 7598
01> -16392
00> 7616
01> -16411
00> 7600
01> -16409
00> 7579
01> -16395
00> 7572
01> -16377
00> 7601
01> -16387
00> 7623
01> -16409
00> 7608
01> -16416
00> 7579
01> -16401
00> 7574
01> -16385
00> 7591
01> -16394
00> 7609
01> -16407
00> 7601
01> -16411
00> 7572
01> -16399
00> 7557
01> -16394
00> 7571
01> -16409
00> 7584
01> -16437
00> 7584
01> -16419
00> 7576
01> -16392
00> 7578
01> -16382
00> 7593
01> -16395
00> 7605
01> -16406
00> 7595
01> -16400
00> 7567
01> -16388
00> 7568
01> -16378
00> 7591
01> -16379
00> 7616
01> -16387
00> 7599
01> -16397
00> 7571
01> -16394
00> 7564
01> -16384
00> 7588
01> -16390
00> 7598
01> -16415
00> 7581
01> -16426
00> 7564
01> -16414
00> 7575
01> -16397
00> 7593
01> -16412
00> 7599
01> -16440
00> 7584
01> -16449
00> 7552
01> -16445
00> 7541
01> -16438
00> 7565
01> -16449
00> 7579
01> -16467
00> 7569
01> -16473
00> 7541
01> -16469
00> 7532
01> -16461
00> 7561
01> -16466
00> 7591
01> -16482
00> 7574
01> -16488
00> 7543
01> -16468
00> 7541
01> -16442
00> 7558
01> -16449
00> 7582
01> -16470
00> 7571
01> -16481
00> 7549
01> -16465
00> 7551
01> -16446
00> 7570
01> -16463
00> 7584
01> -16487
00> 7568
01> -16494
00> 7546
01> -16468
00> 7541
01> -16456
00> 7570
01> -16465
00> 7601
01> -16479
00> 7578
01> -16484
00> 7557
01> -16466
00> 7546
01> -16459
00> 7559
01> -16477
00> 7571
01> -16499
00> 7564
01> -16496
00> 7541
01> -16476
00> 7546
01> -16450
00> 7573
01> -16452
00> 7591
01> -16464
00> 7583
01> -16471
00> 7552
01> -16476
00> 7546
01> -16462
00> 7573
01> -16469
00> 7581
01> -16485
00> 7566
01> -16487
00> 7559
01> -16466
00> 7556
01> -16447
00> 7581
01> -16457
00> 7591
01> -16482
00> 7587
01> -16479
00> 7562
01> -16458
00> 7556
01> -16447
00> 7569
01> -16450
00> 7595
01> -16471
00> 7589
01> -16479
00> 7553
01> -16462
00> 7554
01> -16436
00> 7576
01> -16435
00> 7596
01> -16461
00> 7589
01> -16466
00> 7561
01> -16452
00> 7549
01> -16442
00> 7566
01> -16451
00> 7589
01> -16458
00> 7584
01> -16461
00> 7548
01> -16456
00> 7548
01> -16431
00> 7589
01> -16421
00> 7596
01> -16445
00> 7588
01> -16456
00> 7559
01> -16449
00> 7555
01> -16440
00> 7571
01> -16444
00> 7589
01> -16457
00> 7590
01> -16456
00> 7570
01> -16431
00> 7565
01> -16416
00> 7582
01> -16428
00> 7601
01> -16451
00> 7594
01> -16459
00> 7582
01> -16434
00> 7582
01> -16406
00> 7598
01> -16406
00> 7617
01> -16424
00> 7601
01> -16439
00> 7569
01> -16426
00> 7560
01> -16409
00> 7584
01> -16411
00> 7623
01> -16431
00> 7619
01> -16446
00> 7583
01> -16442
00> 7568
01> -16431
00> 7586
01> -16420
00> 7614
01> -16428
00> 7604
01> -16432
00> 7574
01> -16419
00> 7564
01> -16406
00> 7591
01> -16404
00> 7613
01> -16418
00> 7609
01> -16431
00> 7576
01> -16424
00> 7562
01> -16411
00> 7588
01> -16405
00> 7613
01> -16414
00> 7602
01> -16426
00> 7576
01> -16422
00> 7568
01> -16411
00> 7588
01> -16402
00> 7604
01> -16414
00> 7589
01> -16425
00> 7561
01> -16417
00> 7558
01> -16404
00> 7579
01> -16411
00> 7608
01> -16435
00> 7596
01> -16448
00> 7580
01> -16416
00> 7565
01> -16401
00> 7580
01> -16406
00> 7602
01> -16414
00> 7594
01> -16419
00> 7571
01> -16408
00> 7565
01> -16392
00> 7588
01> -16396
00> 7599
01> -16424
00> 7588
01> -16432
00> 7567
01> -16409
00> 7551
01> -16395
00> 7573
01> -16396
00> 7595
01> -16414
00> 7589
01> -16424
00> 7567
01> -16416
00> 7563
01> -16409
00> 7574
01> -16417
00> 7588
01> -16439
00> 7573
01> -16458
00> 7549
01> -16440
00> 7541
01> -16421
00> 7559
01> -16425
00> 7577
01> -16452
00> 7575
01> -16464
00> 7551
01> -16466
00> 7540
01> -16458
00> 7568
01> -16442
00> 7594
01> -16447
00> 7586
01> -16456
00> 7566
01> -16442
00> 7559
01> -16424
00> 7571
01> -16434
00> 7592
01> -16444
00> 7588
01> -16451
00> 7576
01> -16432
00> 7564
01> -16402
00> 7578
01> -16402
00> 7599
01> -16426
00> 7597
01> -16437
00> 7571
01> -16427
00> 7561
01> -16406
00> 7579
01> -16404
00> 7603
01> -16420
00> 7594
01> -16430
00> 7563
01> -16419
00> 7556
01> -16399
00> 7578
01> -16392
00> 7603
01> -16412
00> 7599
01> -16432
00> 7576
01> -16423
00> 7562
01> -16398
00> 7578
01> -16392
00> 7594
01> -16409
00> 7599
01> -16416
00> 7579
01> -16405
00> 7558
01> -16389
00> 7569
01> -16382
00> 7595
01> -16401
00> 7599
01> -16426
00> 7570
01> -16422
00> 7549
01> -16404
00> 7579
01> -16390
00> 7601
01> -16400
00> 7597
01> -16417
00> 7563
01> -16421
00> 7548
01> -16405
00> 7581
01> -16391
00> 7619
01> -16399
00> 7617
01> -16414
00> 7577
01> -16409
00> 7569
01> -16387
00> 7586
01> -16384
00> 7608
01> -16394
00> 7614
01> -16400
00> 7583
01> -16395
00> 7556
01> -16389
00> 7578
01> -16385
00> 7610
01> -16397
00> 7609
01> -16406
00> 7583
01> -16396
00> 7571
01> -16379
00> 7579
01> -16380
00> 7600
01> -16389
00> 7611
01> -16391
00> 7598
01> -16375
00> 7576
01> -16360
00> 7588
01> -16354
00> 7608
01> -16377
00> 7604
01> -16387
00> 7580
01> -16382
00> 7567
01> -16378
00> 7581
01> -16375
00> 7613
01> -16383
00> 7608
01> -16403
00> 7598
01> -16382
00> 7581
01> -16359
00> 7581
01> -16371
00> 7609
01> -16384
00> 7613
01> -16400
00> 7594
01> -16384
00> 7577
01> -16366
00> 7589
01> -16361
00> 7616
01> -16372
00> 7614
01> -16382
00> 7599
01> -16369
00> 7584
01> -16354
00> 7593
01> -16351
00> 7609
01> -16357
00> 7607
01> -16361
00> 7582
01> -16349
00> 7563
01> -16339
00> 7580
01> -16346
00> 7592
01> -16377
00> 7588
01> -16387
00> 7579
01> -16364
00> 7568
01> -16353
00> 7579
01> -16358
00> 7612
01> -16357
00> 7608
01> -16367
00> 7579
01> -16362
00> 7562
01> -16351
00> 7560
01> -16361
00> 7576
01> -16377
00> 7585
01> -16380
00> 7568
01> -16366
00> 7558
01> -16356
00> 7561
01> -16362
00> 7585
01> -16373
00> 7597
01> -16376
00> 7571
01> -16372
00> 7553
01> -16356
00> 7554
01> -16367
00> 7579
01> -16384
00> 7588
01> -16387
00> 7567
01> -16374
00> 7558
01> -16354
00> 7574
01> -16344
00> 7596
01> -16354
00> 7601
01> -16366
00> 7578
01> -16360
00> 7572
01> -16344
00> 7577
01> -16345
00> 7601
01> -16351
00> 7599
01> -16359
00> 7570
01> -16361
00> 7569
01> -16340
00> 7582
01> -16337
00> 7593
01> -16347
00> 7590
01> -16358
00> 7578
01> -16359
00> 7571
01> -16339
00> 7576
01> -16336
00> 7597
01> -16353
00> 7598
01> -16365
00> 7578
01> -16355
00> 7559
01> -16336
00> 7570
01> -16334
00> 7604
01> -16341
00> 7603
01> -16354
00> 7576
01> -16352
00> 7557
01> -16346
00> 7570
01> -16344
00> 7593
01> -16351
00> 7596
01> -16362
00> 7576
01> -16361
00> 7563
01> -16341
00> 7573
01> -16337
00> 7594
01> -16353
00> 7603
01> -16361
00> 7586
01> -16351
00> 7558
01> -16333
00> 7564
01> -16326
00> 7591
01> -16341
00> 7601
01> -16350
00> 7581
01> -16346
00> 7561
01> -16328
00> 7564
01> -16327
00> 7591
01> -16342
00> 7601
01> -16356
00> 7572
01> -16354
00> 7557
01> -16325
00> 7579
01> -16315
00> 7604
01> -16331
00> 7604
01> -16351
00> 7584
01> -16351
00> 7554
01> -16340
00> 7568
01> -16331
00> 7609
01> -16338
00> 7611
01> -16354
00> 7574
01> -16348
00> 7556
01> -16331
00> 7566
01> -16324
00> 7589
01> -16339
00> 7598
01> -16352
00> 7584
01> -16344
00> 7569
01> -16321
00> 7578
01> -16317
00> 7595
01> -16334
00> 7599
01> -16339
00> 7575
01> -16339
00> 7558
01> -16321
00> 7566
01> -16315
00> 7598
01> -16322
00> 7600
01> -16342
00> 7576
01> -16343
00> 7556
01> -16322
00> 7559
01> -16318
00> 7584
01> -16331
00> 7603
01> -16332
00> 7573
01> -16339
00> 7545
01> -16327
00> 7551
01> -16321
00> 7579
01> -16327
00> 7596
01> -16328
00> 7577
01> -16326
00> 7559
01> -16309
00> 7563
01> -16301
00> 7593
01> -16310
00> 7596
01> -16327
00> 7562
01> -16323
00> 7551
01> -16307
00> 7557
01> -16306
00> 7577
01> -16324
00> 7585
01> -16339
00> 7577
01> -16322
00> 7566
01> -16301
00> 7562
01> -16301
00> 7588
01> -16312
00> 7599
01> -16322
00> 7574
01> -16322
00> 7546
01> -16316
00> 7549
01> -16317
00> 7571
01> -16320
00> 7593
01> -16317
00> 7571
01> -16324
00> 7554
01> -16318
00> 7573
01> -16303
00> 7605
01> -16307
00> 7614
01> -16326
00> 7586
01> -16329
00> 7559
01> -16312
00> 7565
01> -16297
00> 7594
01> -16306
00> 7614
01> -16309
00> 7596
01> -16306
00> 7569
01> -16301
00> 7578
01> -16292
00> 7599
01> -16307
00> 7604
01> -16321
00> 7591
01> -16310
00> 7554
01> -16300
00> 7540
01> -16302
00> 7578
01> -16306
00> 7613
01> -16312
00> 7606
01> -16311
00> 7582
01> -16297
00> 7584
01> -16301
00> 7593
01> -16324
00> 7593
01> -16337
00> 7581
01> -16324
00> 7558
01> -16310
00> 7559
01> -16302
00> 7584
01> -16311
00> 7599
01> -16324
00> 7581
01> -16320
00> 7568
01> -16297
00> 7588
01> -16289
00> 7614
01> -16302
00> 7614
01> -16316
00> 7588
01> -16313
00> 7554
01> -16304
00> 7561
01> -16296
00> 7593
01> -16299
00> 7604
01> -16312
00> 7589
01> -16311
00> 7564
01> -16294
00> 7561
01> -16286
00> 7583
01> -16300
00> 7593
01> -16319
00> 7577
01> -16311
00> 7557
01> -16286
00> 7551
01> -16279
00> 7568
01> -16291
00> 7581
01> -16306
00> 7568
01> -16310
00> 7554
01> -16299
00> 7559
01> -16291
00> 7586
01> -16296
00> 7589
01> -16312
00> 7563
01> -16314
00> 7548
01> -16299
00> 7554
01> -16297
00> 7581
01> -16310
00> 7587
01> -16325
00> 7571
01> -16321
00> 7546
01> -16306
00> 7547
01> -16297
00> 7566
01> -16315
00> 7575
01> -16331
00> 7564
01> -16323
00> 7543
01> -16314
00> 7541
01> -16307
00> 7570
01> -16312
00> 7580
01> -16323
00> 7564
01> -16330
00> 7544
01> -16316
00> 7549
01> -16310
00> 7566
01> -16329
00> 7564
01> -16352
00> 7543
01> -16362
00> 7519
01> -16351
00> 7514
01> -16351
00> 7540
01> -16351
00> 7556
01> -16366
00> 7544
01> -16368
00> 7513
01> -16357
00> 7510
01> -16356
00> 7523
01> -16375
00> 7543
01> -16380
00> 7533
01> -16368
00> 7508
01> -16354
00> 7506
01> -16347
00> 7531
01> -16354
00> 7546
01> -16372
00> 7531
01> -16377
00> 7507
01> -16362
00> 7512
01> -16345
00> 7531
01> -16359
00> 7534
01> -16383
00> 7524
01> -16385
00> 7512
01> -16365
00> 7509
01> -16352
00> 7525
01> -16367
00> 7533
01> -16394
00> 7526
01> -16386
00> 7494
01> -16376
00> 7498
01> -16367
00> 7525
01> -16379
00> 7537
01> -16394
00> 7522
01> -16401
00> 7504
01> -16381
00> 7505
01> -16362
00> 7528
01> -16373
00> 7547
01> -16389
00> 7528
01> -16394
00> 7494
01> -16383
00> 7511
01> -16361
00> 7535
01> -16379
00> 7548
01> -16399
00> 7528
01> -16401
00> 7502
01> -16387
00> 7495
01> -16373
00> 7536
01> -16363
00> 7554
01> -16374
00> 7526
01> -16385
00> 7505
01> -16380
00> 7495
01> -16372
00> 7520
01> -16381
00> 7535
01> -16395
00> 7526
01> -16391
00> 7499
01> -16379
00> 7501
01> -16371
00> 7525
01> -16379
00> 7540
01> -16407
00> 7523
01> -16419
00> 7497
01> -16397
00> 7498
01> -16380
00> 7521
01> -16379
00> 7544
01> -16387
00> 7532
01> -16396
00> 7509
01> -16386
00> 7511
01> -16371
00> 7527
01> -16381
00> 7539
01> -16397
00> 7530
01> -16400
00> 7519
01> -16373
00> 7517
01> -16366
00> 7533
01> -16383
00> 7544
01> -16399
00> 7527
01> -16402
00> 7506
01> -16387
00> 7511
01> -16373
00> 7535
01> -16379
00> 7563
01> -16382
00> 7545
01> -16383
00> 7511
01> -16376
00> 7506
01> -16374
00> 7526
01> -16386
00> 7541
01> -16401
00> 7531
01> -16401
00> 7513
01> -16378
00> 7513
01> -16359
00> 7541
01> -16375
00> 7556
01> -16392
00> 7529
01> -16398
00> 7504
01> -16374
00> 7516
01> -16343
00> 7548
01> -16349
00> 7564
01> -16374
00> 7549
01> -16382
00> 7516
01> -16367
00> 7517
01> -16343
00> 7546
01> -16341
00> 7556
01> -16352
00> 7551
01> -16349
00> 7541
01> -16327
00> 7536
01> -16319
00> 7551
01> -16324
00> 7569
01> -16341
00> 7549
01> -16356
00> 7514
01> -16346
00> 7501
01> -16331
00> 7528
01> -16329
00> 7553
01> -16349
00> 7543
01> -16354
00> 7518
01> -16341
00> 7519
01> -16322
00> 7536
01> -16329
00> 7551
01> -16342
00> 7539
01> -16342
00> 7511
01> -16334
00> 7514
01> -16317
00> 7537
01> -16320
00> 7554
01> -16341
00> 7543
01> -16344
00> 7516
01> -16337
00> 7506
01> -16334
00> 7533
01> -16331
00> 7555
01> -16332
00> 7543
01> -16339
00> 7511
01> -16337
00> 7503
01> -16324
00> 7528
01> -16324
00> 7553
01> -16335
00> 7540
01> -16338
00> 7517
01> -16329
00> 7533
01> -16306
00> 7551
01> -16310
00> 7553
01> -16324
00> 7534
01> -16329
00> 7508
01> -16314
00> 7500
01> -16298
00> 7521
01> -16297
00> 7539
01> -16314
00> 7533
01> -16321
00> 7523
01> -16299
00> 7518
01> -16281
00> 7528
01> -16300
00> 7556
01> -16313
00> 7536
01> -16323
00> 7509
01> -16307
00> 7499
01> -16299
00> 7518
01> -16301
00> 7540
01> -16313
00> 7539
01> -16322
00> 7523
01> -16312
00> 7518
01> -16294
00> 7538
01> -16299
00> 7544
01> -16330
00> 7514
01> -16349
00> 7481
01> -16347
00> 7475
01> -16331
00> 7496
01> -16329
00> 7521
01> -16339
00> 7513
01> -16353
00> 7484
01> -16351
00> 7479
01> -16341
00> 7500
01> -16345
00> 7510
01> -16354
00> 7496
01> -16364
00> 7479
01> -16349
00> 7489
01> -16321
00> 7504
01> -16331
00> 7514
01> -16359
00> 7498
01> -16371
00> 7470
01> -16360
00> 7472
01> -16347
00> 7494
01> -16341
00> 7514
01> -16348
00> 7511
01> -16350
00> 7494
01> -16338
00> 7490
01> -16330
00> 7501
01> -16341
00> 7518
01> -16362
00> 7511
01> -16366
00> 7485
01> -16351
00> 7468
01> -16334
00> 7486
01> -16340
00> 7516
01> -16351
00> 7511
01> -16359
00> 7493
01> -16350
00> 7489
01> -16335
00> 7499
01> -16348
00> 7511
01> -16375
00> 7509
01> -16376
00> 7494
01> -16346
00> 7486
01> -16324
00> 7491
01> -16335
00> 7504
01> -16352
00> 7499
01> -16362
00> 7474
01> -16359
00> 7469
01> -16337
00> 7496
01> -16327
00> 7517
01> -16352
00> 7510
01> -16365
00> 7488
01> -16350
00> 7478
01> -16324
00> 7491
01> -16327
00> 7501
01> -16351
00> 7503
01> -16357
00> 7484
01> -16358
00> 7473
01> -16343
00> 7486
01> -16341
00> 7504
01> -16354
00> 7501
01> -16364
00> 7481
01> -16354
00> 7483
01> -16332
00> 7503
01> -16333
00> 7517
01> -16349
00> 7518
01> -16345
00> 7492
01> -16330
00> 7473
01> -16327
00> 7490
01> -16332
00> 7512
01> -16341
00> 7510
01> -16336
00> 7490
01> -16322
00> 7480
01> -16308
00> 7486
01> -16321
00> 7498
01> -16348
00> 7505
01> -16345
00> 7483
01> -16332
00> 7473
01> -16327
00> 7486
01> -16338
00> 7512
01> -16346
00> 7509
01> -16342
00> 7484
01> -16324
00> 7469
01> -16312
00> 7479
01> -16319
00> 7501
01> -16327
00> 7506
01> -16325
00> 7487
01> -16321
00> 7474
01> -16316
00> 7488
01> -16320
00> 7513
01> -16326
00> 7511
01> -16330
00> 7486
01> -16322
00> 7471
01> -16313
00> 7487
01> -16312
00> 7515
01> -16330
00> 7508
01> -16344
00> 7476
01> -16345
00> 7463
01> -16327
00> 7480
01> -16322
00> 7506
01> -16329
00> 7507
01> -16333
00> 7487
01> -16317
00> 7476
01> -16302
00> 7488
01> -16310
00> 7501
01> -16332
00> 7496
01> -16331
00> 7471
01> -16322
00> 7486
01> -16304
00> 7505
01> -16296
00> 7528
01> -16288
00> 7514
01> -16281
00> 7486
01> -16257
00> 7493
01> -16211
00> 7520
01> -16182
00> 7543
01> -16186
00> 7536
01> -16194
00> 7510
01> -16180
00> 7507
01> -16157
00> 7523
01> -16152
00> 7548
01> -16166
00> 7552
01> -16175
00> 7523
01> -16170
00> 7508
01> -16169
00> 7524
01> -16170
00> 7544
01> -16184
00> 7549
01> -16196
00> 7524
01> -16193
00> 7500
01> -16180
00> 7516
01> -16184
00> 7540
01> -16199
00> 7544
01> -16211
00> 7520
01> -16212
00> 7511
01> -16195
00> 7520
01> -16195
00> 7529
01> -16215
00> 7526
01> -16234
00> 7514
01> -16222
00> 7511
01> -16199
00> 7518
01> -16209
00> 7533
01> -16237
00> 7536
01> -16244
00> 7509
01> -16234
00> 7485
01> -16225
00> 7489
01> -16237
00> 7523
01> -16252
00> 7528
01> -16264
00> 7499
01> -16257
00> 7483
01> -16241
00> 7494
01> -16242
00> 7523
01> -16246
00> 7523
01> -16257
00> 7494
01> -16254
00> 7477
01> -16239
00> 7488
01> -16242
00> 7521
01> -16255
00> 7533
01> -16259
00> 7506
01> -16259
00> 7484
01> -16251
00> 7488
01> -16246
00> 7506
01> -16252
00> 7516
01> -16257
00> 7500
01> -16251
00> 7481
01> -16246
00> 7483
01> -16244
00> 7514
01> -16257
00> 7523
01> -16282
00> 7504
01> -16279
00> 7486
01> -16259
00> 7502
01> -16244
00> 7522
01> -16251
00> 7520
01> -16265
00> 7491
01> -16269
00> 7468
01> -16265
00> 7489
01> -16260
00> 7522
01> -16270
00> 7521
01> -16287
00> 7490
01> -16282
00> 7467
01> -16267
00> 7478
01> -16263
00> 7506
01> -16272
00> 7503
01> -16286
00> 7479
01> -16281
00> 7474
01> -16264
00> 7493
01> -16263
00> 7513
01> -16271
00> 7504
01> -16279
00> 7479
01> -16276
00> 7471
01> -16258
00> 7491
01> -16254
00> 7511
01> -16272
00> 7508
01> -16287
00> 7484
01> -16272
00> 7466
01> -16255
00> 7491
01> -16246
00> 7520
01> -16264
00> 7518
01> -16276
00> 7488
01> -16269
00> 7469
01> -16253
00> 7479
01> -16247
00> 7494
01> -16264
00> 7503
01> -16275
00> 7495
01> -16268
00> 7476
01> -16267
00> 7483
01> -16278
00> 7503
01> -16311
00> 7486
01> -16352
00> 7454
01> -16364
00> 7423
01> -16370
00> 7424
01> -16384
00> 7453
01> -16404
00> 7463
01> -16412
00> 7439
01> -16411
00> 7415
01> -16407
00> 7416
01> -16407
00> 7440
01> -16421
00> 7448
01> -16426
00> 7426
01> -16417
00> 7409
01> -16399
00> 7430
01> -16392
00> 7453
01> -16414
00> 7452
01> -16421
00> 7432
01> -16408
00> 7418
01> -16392
00> 7429
01> -16392
00> 7449
01> -16403
00> 7455
01> -16411
00> 7428
01> -16408
00> 7410
01> -16392
00> 7424
01> -16393
00> 7447
01> -16404
00> 7458
01> -16407
00> 7430
01> -16399
00> 7409
01> -16377
00> 7427
01> -16367
00> 7444
01> -16390
00> 7450
01> -16402
00> 7434
01> -16392
00> 7421
01> -16378
00> 7439
01> -16373
00> 7471
01> -16386
00> 7467
01> -16406
00> 7439
01> -16400
00> 7424
01> -16377
00> 7441
01> -16367
00> 7463
01> -16371
00> 7458
01> -16384
00> 7438
01> -16381
00> 7423
01> -16366
00> 7441
01> -16368
00> 7465
01> -16382
00> 7480
01> -16372
00> 7478
01> -16347
00> 7454
01> -16329
00> 7455
01> -16320
00> 7476
01> -16337
00> 7492
01> -16347
00> 7478
01> -16351
00> 7458
01> -16334
00> 7461
01> -16326
00> 7488
01> -16332
00> 7489
01> -16348
00> 7467
01> -16348
00> 7451
01> -16330
00> 7463
01> -16323
00> 7478
01> -16345
00> 7460
01> -16379
00> 7426
01> -16394
00> 7423
01> -16381
00> 7439
01> -16387
00> 7450
01> -16412
00> 7446
01> -16434
00> 7426
01> -16432
00> 7415
01> -16412
00> 7424
01> -16411
00> 7442
01> -16433
00> 7449
01> -16439
00> 7438
01> -16428
00> 7411
01> -16419
00> 7407
01> -16426
00> 7426
01> -16442
00> 7432
01> -16455
00> 7406
01> -16459
00> 7388
01> -16436
00> 7407
01> -16422
00> 7436
01> -16436
00> 7426
01> -16454
00> 7400
01> -16447
00> 7378
01> -16438
00> 7383
01> -16434
00> 7408
01> -16442
00> 7424
01> -16447
00> 7413
01> -16439
00> 7394
01> -16427
00> 7403
01> -16427
00> 7428
01> -16442
00> 7430
01> -16462
00> 7410
01> -16463
00> 7395
01> -16440
00> 7408
01> -16432
00> 7424
01> -16450
00> 7434
01> -16457
00> 7414
01> -16446
00> 7397
01> -16426
00> 7405
01> -16427
00> 7433
01> -16438
00> 7444

00> 7423
01> -16447
00> 7410
01> -16414
00> 7413
01> -16401
00> 7438
01> -16410
00> 7451
01> -16424
00> 7434
01> -16427
00> 7409
01> -16421
00> 7413
01> -16411
00> 7449
01> -16417
00> 7458
01> -16426
00> 7446
01> -16420
00> 7432
01> -16405
00> 7432
01> -16404
00> 7458
01> -16416
00> 7458
01> -16432
00> 7432
01> -16427
00> 7403
01> -16414
00> 7426
01> -16396
00> 7451
01> -16408
00> 7465
01> -16419
00> 7436
01> -16422
00> 7403
01> -16414
00> 7415
01> -16403
00> 7447
01> -16407
00> 7458
01> -16421
00> 7438
01> -16420
00> 7416
01> -16392
00> 7424
01> -16381
00> 7456
01> -16399
00> 7467
01> -16404
00> 7444
01> -16382
00> 7431
01> -16342
00> 7446
01> -16309
00> 7478
01> -16294
00> 7493
01> -16294
00> 7479
01> -16277
00> 7462
01> -16244
00> 7464
01> -16223
00> 7495
01> -16227
00> 7516
01> -16250
00> 7516
01> -16249
00> 7504
01> -16230
00> 7499
01> -16220
00> 7511
01> -16229
00> 7517
01> -16248
00> 7503
01> -16252
00> 7481
01> -16240
00> 7482
01> -16235
00> 7515
01> -16234
00> 7527
01> -16249
00> 7501
01> -16262
00> 7476
01> -16250
00> 7475
01> -16242
00> 7484
01> -16266
00> 7483
01> -16294
00> 7467
01> -16291
00> 7449
01> -16274
00> 7458
01> -16259
00> 7488
01> -16262
00> 7499
01> -16282
00> 7484
01> -16290
00> 7471
01> -16264
00> 7469
01> -16257
00> 7490
01> -16272
00> 7518
01> -16288
00> 7504
01> -16297
00> 7481
01> -16275
00> 7467
01> -16269
00> 7474
01> -16282
00> 7484
01> -16289
00> 7472
01> -16290
00> 7450
01> -16282
00> 7454
01> -16281
00> 7483
01> -16291
00> 7493
01> -16304
00> 7469
01> -16304
00> 7444
01> -16280
00> 7457
01> -16264
00> 7488
01> -16271
00> 7493
01> -16293
00> 7464
01> -16311
00> 7441
01> -16299
00> 7455
01> -16282
00> 7478
01> -16292
00> 7481
01> -16314
00> 7488
01> -16294
00> 7477
01> -16274
00> 7467
01> -16271
00> 7481
01> -16286
00> 7479
01> -16301
00> 7484
01> -16277
00> 7489
01> -16251
00> 7498
01> -16244
00> 7519
01> -16263
00> 7518
01> -16265
00> 7494
01> -16246
00> 7507
01> -16197
00> 7516
01> -16160
00> 7526
01> -16164
00> 7533
01> -16165
00> 7513
01> -16136
00> 7510
01> -16070
00> 7539
01> -16005
00> 7594
01> -15954
00> 7638
01> -15918
00> 7645
01> -15864
00> 7640
01> -15792
00> 7661
01> -15745
00> 7698
01> -15724
00> 7729
01> -15716
00> 7715
01> -15705
00> 7686
01> -15690
00> 7688
01> -15682
00> 7691
01> -15711
00> 7691
01> -15740
00> 7665
01> -15760
00> 7638
01> -15770
00> 7619
01> -15789
00> 7626
01> -15820
00> 7629
01> -15859
00> 7623
01> -15872
00> 7598
01> -15876
00> 7579
01> -15893
00> 7587
01> -15926
00> 7595
01> -15958
00> 7582
01> -15975
00> 7549
01> -15975
00> 7549
01> -15967
00> 7568
01> -15996
00> 7581
01> -16032
00> 7564
01> -16047
00> 7534
01> -16046
00> 7536
01> -16037
00> 7558
01> -16054
00> 7571
01> -16078
00> 7539
01> -16094
00> 7511
01> -16087
00> 7516
01> -16080
00> 7540
01> -16096
00> 7549
01> -16118
00> 7532
01> -16134
00> 7497
01> -16132
00> 7489
01> -16128
00> 7503
01> -16147
00> 7520
01> -16166
00> 7505
01> -16178
00> 7475
01> -16177
00> 7473
01> -16170
00> 7491
01> -16194
00> 7502
01> -16226
00> 7498
01> -16229
00> 7477
01> -16224
00> 7465
01> -16224
00> 7489
01> -16228
00> 7508
01> -16244
00> 7481
01> -16256
00> 7440
01> -16248
00> 7438
01> -16247
00> 7463
01> -16264
00> 7484
01> -16280
00> 7468
01> -16294
00> 7439
01> -16288
00> 7436
01> -16279
00> 7463
01> -16284
00> 7475
01> -16300
00> 7456
01> -16312
00> 7434
01> -16300
00> 7428
01> -16297
00> 7452
01> -16313
00> 7468
01> -16336
00> 7443
01> -16349
00> 7414
01> -16332
00> 7424
01> -16310
00> 7458
01> -16311
00> 7463
01> -16331
00> 7438
01> -16336
00> 7413
01> -16322
00> 7406
01> -16314
00> 7431
01> -16321
00> 7452
01> -16340
00> 7446
01> -16349
00> 7424
01> -16335
00> 7418
01> -16322
00> 7446
01> -16322
00> 7461
01> -16339
00> 7449
01> -16338
00> 7432
01> -16319
00> 7428
01> -16308
00> 7446
01> -16324
00> 7459
01> -16349
00> 7436
01> -16361
00> 7411
01> -16347
00> 7412
01> -16336
00> 7438
01> -16335
00> 7463
01> -16347
00> 7448
01> -16361
00> 7419
01> -16347
00> 7418
01> -16332
00> 7438
01> -16343
00> 7456
01> -16361
00> 7441
01> -16369
00> 7416
01> -16357
00> 7423
01> -16342
00> 7445
01> -16352
00> 7464
01> -16368
00> 7443
01> -16369
00> 7411
01> -16357
00> 7419
01> -16333
00> 7443
01> -16341
00> 7459
01> -16369
00> 7441
01> -16382
00> 7419
01> -16364
00> 7413
01> -16347
00> 7432
01> -16354
00> 7449
01> -16376
00> 7438
01> -16381
00> 7410
01> -16366
00> 7403
01> -16352
00> 7437
01> -16355
00> 7461
01> -16371
00> 7450
01> -16375
00> 7417
01> -16374
00> 7409
01> -16371
00> 7434
01> -16371
00> 7444
01> -16389
00> 7431
01> -16397
00> 7414
01> -16386
00> 7408
01> -16384
00> 7435
01> -16384
00> 7451
01> -16399
00> 7439
01> -16408
00> 7424
01> -16388
00> 7415
01> -16377
00> 7435
01> -16381
00> 7457
01> -16396
00> 7444
01> -16401
00> 7413
01> -16385
00> 7405
01> -16369
00> 7425
01> -16378
00> 7448
01> -16394
00> 7443
01> -16398
00> 7413
01> -16394
00> 7393
01> -16394
00> 7408
01> -16415
00> 7418
01> -16449
00> 7423
01> -16456
00> 7388
01> -16455
00> 7366
01> -16451
00> 7386
01> -16456
00> 7408
01> -16482
00> 7401
01> -16487
00> 7377
01> -16461
00> 7368
01> -16449
00> 7388
01> -16454
00> 7409
01> -16468
00> 7404
01> -16467
00> 7373
01> -16467
00> 7376
01> -16442
00> 7403
01> -16434
00> 7420
01> -16455
00> 7409
01> -16469
00> 7380
01> -16461
00> 7378
01> -16439
00> 7406
01> -16441
00> 7422
01> -16459
00> 7398
01> -16476
00> 7374
01> -16459
00> 7376
01> -16441
00> 7398
01> -16447
00> 7403
01> -16464
00> 7404
01> -16468
00> 7391
01> -16441
00> 7371
01> -16424
00> 7394
01> -16446
00> 7418
01> -16469
00> 7396
01> -16475
00> 7363
01> -16463
00> 7368
01> -16446
00> 7397
01> -16441
00> 7401
01> -16461
00> 7402
01> -16455
00> 7376
01> -16455
00> 7354
01> -16457
00> 7375
01> -16454
00> 7399
01> -16464
00> 7399
01> -16460
00> 7378
01> -16449
00> 7381
01> -16412
00> 7399
01> -16418
00> 7405
01> -16444
00> 7404
01> -16467
00> 7376
01> -16458
00> 7372
01> -16439
00> 7387
01> -16446
00> 7399
01> -16471
00> 7395
01> -16484
00> 7380
01> -16461
00> 7371
01> -16447
00> 7386
01> -16461
00> 7402
01> -16484
00> 7388
01> -16503
00> 7358
01> -16502
00> 7344
01> -16487
00> 7363
01> -16508
00> 7374
01> -16551
00> 7361
01> -16565
00> 7338
01> -16552
00> 7329
01> -16532
00> 7342
01> -16538
00> 7362
01> -16553
00> 7351
01> -16564
00> 7334
01> -16551
00> 7313
01> -16536
00> 7318
01> -16531
00> 7352
01> -16541
00> 7356
01> -16550
00> 7329
01> -16539
00> 7314
01> -16524
00> 7324
01> -16527
00> 7353
01> -16537
00> 7348
01> -16554
00> 7318
01> -16542
00> 7318
01> -16522
00> 7344
01> -16522
00> 7359
01> -16541
00> 7358
01> -16551
00> 7326
01> -16542
00> 7326
01> -16516
00> 7348
01> -16517
00> 7372
01> -16534
00> 7364
01> -16542
00> 7337
01> -16530
00> 7319
01> -16515
00> 7331
01> -16522
00> 7356
01> -16537
00> 7353
01> -16541
00> 7328
01> -16531
00> 7319
01> -16509
00> 7334
01> -16507
00> 7353
01> -16523
00> 7355
01> -16524
00> 7328
01> -16514
00> 7313
01> -16502
00> 7341
01> -16506
00> 7368
01> -16521
00> 7356
01> -16529
00> 7333
01> -16518
00> 7334
01> -16494
00> 7349
01> -16493
00> 7369
01> -16509
00> 7367
01> -16514
00> 7343
01> -16505
00> 7340
01> -16489
00> 7358
01> -16489
00> 7390
01> -16497
00> 7382
01> -16502
00> 7354
01> -16497
00> 7336
01> -16485
00> 7359
01> -16484
00> 7383
01> -16496
00> 7383
01> -16489
00> 7363
01> -16468
00> 7379
01> -16429
00> 7414
01> -16444
00> 7421
01> -16461
00> 7402
01> -16436
00> 7396
01> -16405
00> 7416
01> -16362
00> 7442
01> -16326
00> 7464
01> -16316
00> 7452
01> -16294
00> 7447
01> -16221
00> 7457
01> -16154
00> 7504
01> -16100
00> 7563
01> -16060
00> 7609
01> -15999
00> 7580
01> -15939
00> 7580
01> -15864
00> 7622
01> -15800
00> 7661
01> -15770
00> 7681
01> -15747
00> 7691
01> -15690
00> 7680
01> -15636
00> 7696
01> -15605
00> 7736
01> -15599
00> 7718
01> -15614
00> 7686
01> -15582
00> 7696
01> -15565
00> 7725
01> -15594
00> 7725
01> -15631
00> 7729
01> -15653
00> 7666
01> -15645
00> 7654
01> -15637
00> 7683
01> -15649
00> 7675
01> -15683
00> 7661
01> -15687
00> 7616
01> -15667
00> 7634
01> -15690
00> 7648
01> -15713
00> 7667
01> -15732
00> 7629
01> -15752
00> 7607
01> -15776
00> 7600
01> -15772
00> 7589
01> -15777
00> 7602
01> -15808
00> 7603
01> -15824
00> 7580
01> -15830
00> 7548
01> -15827
00> 7549
01> -15824
00> 7535
01> -15865
00> 7587
01> -15888
00> 7548
01> -15897
00> 7563
01> -15886
00> 7541
01> -15918
00> 7539
01> -15947
00> 7556
01> -15962
00> 7533
01> -15979
00> 7512
01> -15993
00> 7519
01> -16006
00> 7532
01> -16037
00> 7519
01> -16062
00> 7498
01> -16062
00> 7476
01> -16061
00> 7474
01> -16075
00> 7511
01> -16092
00> 7511
01> -16125
00> 7477
01> -16136
00> 7406
01> -16134
00> 7438
01> -16142
00> 7485
01> -16163
00> 7486
01> -16193
00> 7439
01> -16192
00> 7415
01> -16194
00> 7426
01> -16221
00> 7456
01> -16225
00> 7444
01> -16247
00> 7424
01> -16243
00> 7403
01> -16219
00> 7414
01> -16239
00> 7451
01> -16262
00> 7443
01> -16257
00> 7396
01> -16276
00> 7387
01> -16269
00> 7408
01> -16252
00> 7439
01> -16290
00> 7450
01> -16288
00> 7416
01> -16284
00> 7394
01> -16287
00> 7418
01> -16272
00> 7451
01> -16297
00> 7426
01> -16330
00> 7411
01> -16314
00> 7385
01> -16299
00> 7409
01> -16281
00> 7428
01> -16289
00> 7440
01> -16318
00> 7398
01> -16326
00> 7346
01> -16317
00> 7426
01> -16303
00> 7433
01> -16315
00> 7426
01> -16329
00> 7416
01> -16312
00> 7407
01> -16309
00> 7415
01> -16310
00> 7423
01> -16322
00> 7415
01> -16334
00> 7390
01> -16346
00> 7406
01> -16304
00> 7383
01> -16322
00> 7420
01> -16336
00> 7445
01> -16347
00> 7412
01> -16341
00> 7410
01> -16310
00> 7403
01> -16317
00> 7426
01> -16327
00> 7404
01> -16329
00> 7390
01> -16358
00> 7398
01> -16343
00> 7373
01> -16347
00> 7398
01> -16371
00> 7432
01> -16375
00> 7413
01> -16368
00> 7389
01> -16356
00> 7404
01> -16346
00> 7386
01> -16381
00> 7399
01> -16390
00> 7396
01> -16372
00> 7390
01> -16334
00> 7391
01> -16353
00> 7419
01> -16366
00> 7407
01> -16402
00> 7373
01> -16405
00> 7363
01> -16376
00> 7381
01> -16366
00> 7396
01> -16381
00> 7378
01> -16404
00> 7376
01> -16421
00> 7383
01> -16382
00> 7372
01> -16391
00> 7381
01> -16419
00> 7379
01> -16437
00> 7381
01> -16422
00> 7379
01> -16406
00> 7351
01> -16398
00> 7379
01> -16429
00> 7388
01> -16449
00> 7381
01> -16442
00> 7343
01> -16424
00> 7343
01> -16436
00> 7412
01> -16429
00> 7390
01> -16459
00> 7373
01> -16454
00> 7349
01> -16433
00> 7354
01> -16423
00> 7389
01> -16436
00> 7409
01> -16452
00> 7388
01> -16451
00> 7368
01> -16427
00> 7382
01> -16429
00> 7373
01> -16456
00> 7378
01> -16479
00> 7370
01> -16465
00> 7324
01> -16451
00> 7344
01> -16453
00> 7395
01> -16440
00> 7402
01> -16439
00> 7365
01> -16486
00> 7338
01> -16477
00> 7364
01> -16461
00> 7404
01> -16451
00> 7398
01> -16466
00> 7367
01> -16461
00> 7351
01> -16454
00> 7368
01> -16452
00> 7365
01> -16447
00> 7369
01> -16472
00> 7384
01> -16482
00> 7343
01> -16474
00> 7344
01> -16470
00> 7365
01> -16472
00> 7370
01> -16479
00> 7367
01> -16482
00> 7350
01> -16459
00> 7364
01> -16455
00> 7393
01> -16472
00> 7388
01> -16472
00> 7363
01> -16427
00> 7335
01> -16414
00> 7366
01> -16429
00> 7384
01> -16412
00> 7388
01> -16406
00> 7369
01> -16370
00> 7353
01> -16349
00> 7361
01> -16324
00> 7407
01> -16305
00> 7389
01> -16331
00> 7371
01> -16331
00> 7383
01> -16297
00> 7392
01> -16304
00> 7380
01> -16327
00> 7379
01> -16354
00> 7376
01> -16336
00> 7353
01> -16328
00> 7356
01> -16345
00> 7385
01> -16367
00> 7379
01> -16384
00> 7353
01> -16382
00> 7354
01> -16352
00> 7344
01> -16363
00> 7353
01> -16385
00> 7376
01> -16377
00> 7356
01> -16386
00> 7331
01> -16393
00> 7343
01> -16356
00> 7356
01> -16389
00> 7350
01> -16412
00> 7366
01> -16423
00> 7349
01> -16397
00> 7344
01> -16391
00> 7386
01> -16401
00> 7361
01> -16414
00> 7343
01> -16404
00> 7334
01> -16396
00> 7334
01> -16394
00> 7355
01> -16396
00> 7343
01> -16414
00> 7343
01> -16431
00> 7318
01> -16402
00> 7324
01> -16401
00> 7359
01> -16413
00> 7358
01> -16429
00> 7363
01> -16426
00> 7339
01> -16389
00> 7357
01> -16404
00> 7367
01> -16417
00> 7359
01> -16424
00> 7373
01> -16415
00> 7364
01> -16387
00> 7355
01> -16379
00> 7383
01> -16370
00> 7408
01> -16367
00> 7381
01> -16344
00> 7363
01> -16306
00> 7381
01> -16275
00> 7406
01> -16275
00> 7436
01> -16252
00> 7418
01> -16229
00> 7428
01> -16177
00> 7448
01> -16146
00> 7471
01> -16149
00> 7489
01> -16144
00> 7488
01> -16097
00> 7463
01> -16082
00> 7473
01> -16067
00> 7496
01> -16065
00> 7496
01> -16072
00> 7481
01> -16090
00> 7451
01> -16086
00> 7459
01> -16074
00> 7487
01> -16104
00> 7506
01> -16139
00> 7477
01> -16166
00> 7436
01> -16170
00> 7431
01> -16169
00> 7458
01> -16181
00> 7465
01> -16201
00> 7446
01> -16222
00> 7429
01> -16222
00> 7428
01> -16233
00> 7453
01> -16243
00> 7469
01> -16260
00> 7444
01> -16261
00> 7404
01> -16251
00> 7411
01> -16249
00> 7434
01> -16268
00> 7449
01> -16291
00> 7437
01> -16304
00> 7413
01> -16296
00> 7414
01> -16280
00> 7428
01> -16292
00> 7435
01> -16314
00> 7423
01> -16312
00> 7394
01> -16307
00> 7392
01> -16307
00> 7416
01> -16325
00> 7418
01> -16352
00> 7399
01> -16354
00> 7378
01> -16342
00> 7381
01> -16333
00> 7395
01> -16349
00> 7404
01> -16381
00> 7398
01> -16384
00> 7384
01> -16358
00> 7387
01> -16353
00> 7408
01> -16372
00> 7412
01> -16388
00> 7394
01> -16386
00> 7383
01> -16369
00> 7389
01> -16352
00> 7401
01> -16357
00> 7426
01> -16362
00> 7426
01> -16362
00> 7401
01> -16352
00> 7393
01> -16341
00> 7418
01> -16354
00> 7432
01> -16372
00> 7428
01> -16364
00> 7401
01> -16354
00> 7394
01> -16362
00> 7424
01> -16370
00> 7439
01> -16376
00> 7428
01> -16365
00> 7413
01> -16346
00> 7411
01> -16345
00> 7423
01> -16358
00> 7433
01> -16381
00> 7416
01> -16386
00> 7393
01> -16369
00> 7389
01> -16361
00> 7416
01> -16368
00> 7435
01> -16386
00> 7422
01> -16391
00> 7399
01> -16376
00> 7397
01> -16369
00> 7408
01> -16376
00> 7421
01> -16378
00> 7416
01> -16393
00> 7398
01> -16377
00> 7398
01> -16368
00> 7414
01> -16379
00> 7444
01> -16391
00> 7434
01> -16381
00> 7390
01> -16361
00> 7395
01> -16362
00> 7416
01> -16362
00> 7431
01> -16372
00> 7424
01> -16366
00> 7403
01> -16349
00> 7403
01> -16334
00> 7437
01> -16352
00> 7457
01> -16364
00> 7420
01> -16382
00> 7390
01> -16363
00> 7409
01> -16332
00> 7434
01> -16339
00> 7449
01> -16370
00> 7426
01> -16367
00> 7404
01> -16344
00> 7409
01> -16341
00> 7420
01> -16347
00> 7457
01> -16345
00> 7440
01> -16353
00> 7405
01> -16364
00> 7384
01> -16341
00> 7431
01> -16319
00> 7447
01> -16335
00> 7445
01> -16336
00> 7443
01> -16325
00> 7438
01> -16354
00> 7439
01> -16354
00> 7453
01> -16331
00> 7431
01> -16310
00> 7425
01> -16347
00> 7406
01> -16360
00> 7394
01> -16364
00> 7427
01> -16381
00> 7427
01> -16421
00> 7394
01> -16409
00> 7395
01> -16389
00> 7414
01> -16391
00> 7416
01> -16432
00> 7419
01> -16459
00> 7396
01> -16432
00> 7348
01> -16423
00> 7377
01> -16414
00> 7446
01> -16361
00> 7439
01> -16411
00> 7397
01> -16432
00> 7368
01> -16425
00> 7391
01> -16409
00> 7414
01> -16417
00> 7435
01> -16402
00> 7404
01> -16382
00> 7429
01> -16419
00> 7413
01> -16399
00> 7426
01> -16395
00> 7402
01> -16399
00> 7344
01> -16401
00> 7380
01> -16377
00> 7448
01> -16382
00> 7424
01> -16386
00> 7394
01> -16421
00> 7391
01> -16397
00> 7398
01> -16423
00> 7379
01> -16431
00> 7400
01> -16404
00> 7390
01> -16416
00> 7378
01> -16399
00> 7358
01> -16373
00> 7374
01> -16386
00> 7434
01> -16404
00> 7418
01> -16397
00> 7402
01> -16389
00> 7374
01> -16329
00> 7395
01> -16350
00> 7370
01> -16401
00> 7438
01> -16413
00> 7413
01> -16399
00> 7373
01> -16417
00> 7351
01> -16421
00> 7427
01> -16357
00> 7431
01> -16357
00> 7398
01> -16344
00> 7378
01> -16331
00> 7357
01> -16402
00> 7409
01> -16417
00> 7419
01> -16376
00> 7375
01> -16401
00> 7343
01> -16413
00> 7368
01> -16421
00> 7381
01> -16416
00> 7363
01> -16473
00> 7348
01> -16474
00> 7281
01> -16462
00> 7303
01> -16506
00> 7314
01> -16533
00> 7317
01> -16539
00> 7333
01> -16511
00> 7306
01> -16496
00> 7304
01> -16520
00> 7304
01> -16534
00> 7311
01> -16523
00> 7300
01> -16531
00> 7282
01> -16515
00> 7323
01> -16507
00> 7323
01> -16546
00> 7327
01> -16502
00> 7336
01> -16479
00> 7305
01> -16476
00> 7315
01> -16456
00> 7276
01> -16516
00> 7313
01> -16496
00> 7309
01> -16493
00> 7308
01> -16481
00> 7313
01> -16501
00> 7342
01> -16496
00> 7303
01> -16477
00> 7279
01> -16496
00> 7314
01> -16522
00> 7306
01> -16516
00> 7336
01> -16515
00> 7313
01> -16509
00> 7272
01> -16489
00> 7258
01> -16484
00> 7314
01> -16478
00> 7336
01> -16503
00> 7338
01> -16484
00> 7318
01> -16484
00> 7298
01> -16464
00> 7305
01> -16504
00> 7326
01> -16532
00> 7296
01> -16531
00> 7293
01> -16542
00> 7296
01> -16527
00> 7308
01> -16509
00> 7274
01> -16513
00> 7307
01> -16502
00> 7299
01> -16478
00> 7264
01> -16481
00> 7283
01> -16492
00> 7333
01> -16482
00> 7326
01> -16476
00> 7291
01> -16515
00> 7241
01> -16506
00> 7268
01> -16504
00> 7303
01> -16517
00> 7301
01> -16526
00> 7260
01> -16476
00> 7267
01> -16497
00> 7308
01> -16523
00> 7326
01> -16549
00> 7303
01> -16552
00> 7274
01> -16549
00> 7201
01> -16542
00> 7249
01> -16524
00> 7331
01> -16509
00> 7319
01> -16498
00> 7294
01> -16540
00> 7293
01> -16484
00> 7318
01> -16509
00> 7315
01> -16544
00> 7313
01> -16552
00> 7255
01> -16522
00> 7243
01> -16486
00> 7263
01> -16469
00> 7304
01> -16521
00> 7291
01> -16531
00> 7271
01> -16520
00> 7271
01> -16516
00> 7261
01> -16521
00> 7268
01> -16516
00> 7308
01> -16494
00> 7283
01> -16485
00> 7229
01> -16470
00> 7238
01> -16528
00> 7303
01> -16513
00> 7291
01> -16489
00> 7291
01> -16467
00> 7306
01> -16452
00> 7304
01> -16459
00> 7286
01> -16477
00> 7279
01> -16484
00> 7259
01> -16482
00> 7243
01> -16456
00> 7259
01> -16466
00> 7279
01> -16479
00> 7268
01> -16472
00> 7232
01> -16488
00> 7225
01> -16459
00> 7263
01> -16436
00> 7278
01> -16471
00> 7257
01> -16484
00> 7239
01> -16461
00> 7229
01> -16446
00> 7269
01> -16449
00> 7276
01> -16475
00> 7266
01> -16483
00> 7234
01> -16463
00> 7237
01> -16456
00> 7278
01> -16440
00> 7289
01> -16457
00> 7268
01> -16474
00> 7256
01> -16469
00> 7247
01> -16457
00> 7254
01> -16457
00> 7271
01> -16469
00> 7273
01> -16481
00> 7258
01> -16458
00> 7245
01> -16451
00> 7256
01> -16460
00> 7264
01> -16480
00> 7261
01> -16487
00> 7239
01> -16472
00> 7234
01> -16454
00> 7259
01> -16451
00> 7283
01> -16470
00> 7276
01> -16484
00> 7255
01> -16481
00> 7240
01> -16470
00> 7261
01> -16458
00> 7279
01> -16464
00> 7272
01> -16471
00> 7258
01> -16459
00> 7247
01> -16454
00> 7259
01> -16463
00> 7273
01> -16484
00> 7271
01> -16477
00> 7254
01> -16458
00> 7249
01> -16439
00> 7265
01> -16446
00> 7278
01> -16467
00> 7277
01> -16472
00> 7260
01> -16459
00> 7246
01> -16447
00> 7264
01> -16437
00> 7283
01> -16441
00> 7286
01> -16458
00> 7263
01> -16454
00> 7254
01> -16441
00> 7263
01> -16437
00> 7279
01> -16453
00> 7283
01> -16459
00> 7271
01> -16449
00> 7254
01> -16437
00> 7266
01> -16441
00> 7284
01> -16461
00> 7279
01> -16481
00> 7255
01> -16477
00> 7244
01> -16454
00> 7260
01> -16456
00> 7290
01> -16472
00> 7286
01> -16475
00> 7247
01> -16466
00> 7229
01> -16457
00> 7242
01> -16463
00> 7254
01> -16477
00> 7243
01> -16481
00> 7218
01> -16473
00> 7202
01> -16462
00> 7206
01> -16454
00> 7224
01> -16466
00> 7217
01> -16478
00> 7187
01> -16474
00> 7175
01> -16458
00> 7189
01> -16451
00> 7216
01> -16466
00> 7216
01> -16487
00> 7192
01> -16487
00> 7178
01> -16467
00> 7189
01> -16458
00> 7205
01> -16465
00> 7204
01> -16472
00> 7191
01> -16469
00> 7178
01> -16451
00> 7186
01> -16449
00> 7214
01> -16456
00> 7218
01> -16469
00> 7194
01> -16469
00> 7183
01> -16452
00> 7194
01> -16449
00> 7215
01> -16463
00> 7214
01> -16478
00> 7196
01> -16467
00> 7189
01> -16450
00> 7204
01> -16446
00> 7218
01> -16470
00> 7211
01> -16484
00> 7186
01> -16482
00> 7176
01> -16465
00> 7195
01> -16462
00> 7205
01> -16481
00> 7209
01> -16487
00> 7204
01> -16471
00> 7198
01> -16450
00> 7207
01> -16454
00> 7214
01> -16472
00> 7217
01> -16480
00> 7194
01> -16476
00> 7173
01> -16467
00> 7188
01> -16468
00> 7226
01> -16473
00> 7224
01> -16484
00> 7205
01> -16468
00> 7192
01> -16450
00> 7202
01> -16444
00> 7226
01> -16456
00> 7211
01> -16482
00> 7183
01> -16486
00> 7178
01> -16460
00> 7197
01> -16453
00> 7223
01> -16466
00> 7228
01> -16475
00> 7201
01> -16471
00> 7186
01> -16461
00> 7208
01> -16457
00> 7230
01> -16479
00> 7229
01> -16491
00> 7213
01> -16474
00> 7190
01> -16456
00> 7198
01> -16457
00> 7219
01> -16471
00> 7218
01> -16479
00> 7203
01> -16476
00> 7197
01> -16452
00> 7213
01> -16442
00> 7234
01> -16454
00> 7233
01> -16464
00> 7218
01> -16452
00> 7198
01> -16445
00> 7204
01> -16442
00> 7230
01> -16448
00> 7239
01> -16453
00> 7218
01> -16446
00> 7212
01> -16424
00> 7220
01> -16421
00> 7237
01> -16437
00> 7238
01> -16455
00> 7217
01> -16451
00> 7208
01> -16431
00> 7209
01> -16436
00> 7229
01> -16445
00> 7246
01> -16446
00> 7224
01> -16444
00> 7204
01> -16429
00> 7225
01> -16424
00> 7242
01> -16439
00> 7236
01> -16451
00> 7221
01> -16436
00> 7200
01> -16427
00> 7210
01> -16434
00> 7241
01> -16443
00> 7252
01> -16457
00> 7234
01> -16457
00> 7206
01> -16455
00> 7218
01> -16456
00> 7245
01> -16466
00> 7251
01> -16477
00> 7237
01> -16475
00> 7226
01> -16462
00> 7232
01> -16465
00> 7258
01> -16471
00> 7269
01> -16486
00> 7251
01> -16487
00> 7235
01> -16469
00> 7243
01> -16457
00> 7268
01> -16477
00> 7275
01> -16490
00> 7260
01> -16481
00> 7251
01> -16462
00> 7251
01> -16461
00> 7271
01> -16467
00> 7273
01> -16472
00> 7258
01> -16464
00> 7239
01> -16461
00> 7248
01> -16466
00> 7268
01> -16481
00> 7276
01> -16476
00> 7275
01> -16456
00> 7261
01> -16437
00> 7256
01> -16441
00> 7277
01> -16456
00> 7288
01> -16465
00> 7257
01> -16470
00> 7250
01> -16456
00> 7257
01> -16452
00> 7266
01> -16464
00> 7282
01> -16469
00> 7263
01> -16471
00> 7247
01> -16462
00> 7271
01> -16441
00> 7291
01> -16458
00> 7289
01> -16476
00> 7271
01> -16477
00> 7253
01> -16460
00> 7259
01> -16456
00> 7277
01> -16471
00> 7273
01> -16491
00> 7260
01> -16477
00> 7254
01> -16451
00> 7266
01> -16442
00> 7282
01> -16459
00> 7285
01> -16471
00> 7274
01> -16459
00> 7261
01> -16444
00> 7263
01> -16441
00> 7292
01> -16447
00> 7293
01> -16467
00> 7259
01> -16482
00> 7226
01> -16491
00> 7223
01> -16511
00> 7233
01> -16543
00> 7226
01> -16566
00> 7184
01> -16577
00> 7165
01> -16575
00> 7164
01> -16590
00> 7162
01> -16629
00> 7169
01> -16641
00> 7149
01> -16641
00> 7133
01> -16637
00> 7136
01> -16644
00> 7161
01> -16647
00> 7158
01> -16659
00> 7140
01> -16654
00> 7134
01> -16637
00> 7136
01> -16640
00> 7150
01> -16660
00> 7168
01> -16664
00> 7164
01> -16643
00> 7136
01> -16631
00> 7146
01> -16615
00> 7168
01> -16623
00> 7176
01> -16637
00> 7164
01> -16639
00> 7117
01> -16641
00> 7132
01> -16617
00> 7179
01> -16609
00> 7180
01> -16637
00> 7167
01> -16634
00> 7144
01> -16617
00> 7138
01> -16616
00> 7172
01> -16617
00> 7181
01> -16622
00> 7161
01> -16614
00> 7154
01> -16604
00> 7158
01> -16599
00> 7178
01> -16608
00> 7186
01> -16614
00> 7173
01> -16604
00> 7151
01> -16588
00> 7158
01> -16591
00> 7166
01> -16603
00> 7184
01> -16609
00> 7182
01> -16609
00> 7164
01> -16599
00> 7166
01> -16598
00> 7184
01> -16602
00> 7183
01> -16614
00> 7174
01> -16608
00> 7159
01> -16590
00> 7163
01> -16589
00> 7171
01> -16602
00> 7173
01> -16609
00> 7173
01> -16615
00> 7166
01> -16594
00> 7156
01> -16585
00> 7161
01> -16602
00> 7191
01> -16619
00> 7176
01> -16618
00> 7160
01> -16603
00> 7171
01> -16603
00> 7182
01> -16621
00> 7183
01> -16634
00> 7168
01> -16626
00> 7145
01> -16602
00> 7141
01> -16597
00> 7189
01> -16603
00> 7207
01> -16607
00> 7171
01> -16611
00> 7148
01> -16592
00> 7138
01> -16584
00> 7186
01> -16589
00> 7198
01> -16605
00> 7174
01> -16598
00> 7146
01> -16583
00> 7153
01> -16580
00> 7172
01> -16602
00> 7179
01> -16622
00> 7181
01> -16617
00> 7167
01> -16597
00> 7171
01> -16578
00> 7206
01> -16580
00> 7213
01> -16582
00> 7203
01> -16566
00> 7191
01> -16531
00> 7200
01> -16492
00> 7234
01> -16485
00> 7248
01> -16481
00> 7241
01> -16462
00> 7239
01> -16434
00> 7250
01> -16419
00> 7262
01> -16421
00> 7287
01> -16406
00> 7274
01> -16396
00> 7249
01> -16389
00> 7267
01> -16373
00> 7296
01> -16373
00> 7294
01> -16401
00> 7279
01> -16409
00> 7246
01> -16387
00> 7234
01> -16390
00> 7274
01> -16410
00> 7293
01> -16426
00> 7269
01> -16434
00> 7248
01> -16424
00> 7262
01> -16419
00> 7269
01> -16441
00> 7273
01> -16451
00> 7272
01> -16440
00> 7250
01> -16439
00> 7263
01> -16431
00> 7278
01> -16441
00> 7284
01> -16449
00> 7262
01> -16449
00> 7254
01> -16447
00> 7261
01> -16438
00> 7286
01> -16446
00> 7293
01> -16457
00> 7272
01> -16461
00> 7253
01> -16449
00> 7260
01> -16431
00> 7269
01> -16424
00> 7266
01> -16439
00> 7276
01> -16433
00> 7264
01> -16411
00> 7253
01> -16430
00> 7277
01> -16440
00> 7281
01> -16444
00> 7274
01> -16439
00> 7284
01> -16423
00> 7268
01> -16423
00> 7291
01> -16422
00> 7301
01> -16428
00> 7288
01> -16434
00> 7269
01> -16421
00> 7279
01> -16406
00> 7294
01> -16424
00> 7298
01> -16449
00> 7286
01> -16450
00> 7264
01> -16422
00> 7300
01> -16413
00> 7286
01> -16422
00> 7296
01> -16441
00> 7286
01> -16449
00> 7266
01> -16421
00> 7266
01> -16421
00> 7296
01> -16440
00> 7308
01> -16436
00> 7284
01> -16456
00> 7259
01> -16434
00> 7305
01> -16391
00> 7302
01> -16385
00> 7309
01> -16432
00> 7288
01> -16428
00> 7264
01> -16444
00> 7269
01> -16425
00> 7301
01> -16449
00> 7321
01> -16458
00> 7304
01> -16449
00> 7284
01> -16434
00> 7245
01> -16433
00> 7291
01> -16414
00> 7310
01> -16428
00> 7327
01> -16434
00> 7296
01> -16414
00> 7287
01> -16419
00> 7304
01> -16441
00> 7315
01> -16449
00> 7266
01> -16441
00> 7283
01> -16452
00> 7314
01> -16427
00> 7290
01> -16420
00> 7299
01> -16360
00> 7348
01> -16407
00> 7292
01> -16406
00> 7318
01> -16389
00> 7351
01> -16404
00> 7324
01> -16411
00> 7299
01> -16401
00> 7346
01> -16416
00> 7298
01> -16417
00> 7310
01> -16410
00> 7351
01> -16429
00> 7349
01> -16457
00> 7283
01> -16414
00> 7290
01> -16382
00> 7352
01> -16417
00> 7332
01> -16447
00> 7290
01> -16434
00> 7345
01> -16394
00> 7349
01> -16424
00> 7321
01> -16406
00> 7304
01> -16417
00> 7352
01> -16452
00> 7330
01> -16427
00> 7301
01> -16411
00> 7321
01> -16439
00> 7359
01> -16442
00> 7355
01> -16441
00> 7332
01> -16391
00> 7325
01> -16349
00> 7341
01> -16384
00> 7344
01> -16421
00> 7321
01> -16425
00> 7332
01> -16398
00> 7333
01> -16361
00> 7361
01> -16369
00> 7399
01> -16394
00> 7356
01> -16392
00> 7354
01> -16337
00> 7373
01> -16280
00> 7394
01> -16267
00> 7426
01> -16275
00> 7440
01> -16233
00> 7443
01> -16178
00> 7444
01> -16120
00> 7458
01> -16069
00> 7518
01> -16056
00> 7526
01> -16028
00> 7526
01> -15979
00> 7530
01> -15916
00> 7560
01> -15879
00> 7577
01> -15878
00> 7574
01> -15857
00> 7580
01> -15811
00> 7599
01> -15776
00> 7611
01> -15784
00> 7615
01> -15806
00> 7608
01> -15817
00> 7588
01> -15826
00> 7581
01> -15831
00> 7596
01> -15846
00> 7624
01> -15854
00> 7612
01> -15871
00> 7576
01> -15885
00> 7566
01> -15892
00> 7578
01> -15913
00> 7589
01> -15947
00> 7573
01> -15974
00> 7535
01> -15976
00> 7524
01> -15972
00> 7538
01> -15993
00> 7546
01> -16030
00> 7533
01> -16046
00> 7509
01> -16042
00> 7509
01> -16041
00> 7522
01> -16066
00> 7525
01> -16102
00> 7504
01> -16123
00> 7473
01> -16127
00> 7465
01> -16129
00> 7471
01> -16147
00> 7485
01> -16171
00> 7481
01> -16174
00> 7462
01> -16167
00> 7452
01> -16166
00> 7464
01> -16181
00> 7476
01> -16205
00> 7460
01> -16229
00> 7429
01> -16233
00> 7424
01> -16224
00> 7446
01> -16237
00> 7456
01> -16265
00> 7453
01> -16274
00> 7425
01> -16269
00> 7409
01> -16272
00> 7433
01> -16283
00> 7446
01> -16301
00> 7439
01> -16312
00> 7407
01> -16304
00> 7390
01> -16298
00> 7408
01> -16296
00> 7433
01> -16309
00> 7421
01> -16327
00> 7398
01> -16326
00> 7389
01> -16316
00> 7397
01> -16326
00> 7421
01> -16342
00> 7416
01> -16341
00> 7394
01> -16334
00> 7393
01> -16326
00> 7411
01> -16337
00> 7424
01> -16357
00> 7407
01> -16371
00> 7388
01> -16362
00> 7375
01> -16353
00> 7391
01> -16352
00> 7406
01> -16366
00> 7405
01> -16381
00> 7380
01> -16379
00> 7363
01> -16369
00> 7373
01> -16377
00> 7393
01> -16400
00> 7385
01> -16411
00> 7373
01> -16391
00> 7365
01> -16377
00> 7376
01> -16383
00> 7387
01> -16406
00> 7379
01> -16416
00> 7357
01> -16404
00> 7346
01> -16398
00> 7356
01> -16414
00> 7383
01> -16427
00> 7391
01> -16426
00> 7365
01> -16416
00> 7352
01> -16401
00> 7365
01> -16405
00> 7391
01> -16412
00> 7383
01> -16417
00> 7354
01> -16407
00> 7341
01> -16395
00> 7362
01> -16411
00> 7379
01> -16425
00> 7375
01> -16429
00> 7355
01> -16419
00> 7345
01> -16401
00> 7358
01> -16409
00> 7372
01> -16428
00> 7366
01> -16436
00> 7341
01> -16426
00> 7329
01> -16412
00> 7348
01> -16416
00> 7358
01> -16440
00> 7354
01> -16447
00> 7326
01> -16435
00> 7313
01> -16432
00> 7336
01> -16426
00> 7359
01> -16436
00> 7348
01> -16444
00> 7332
01> -16435
00> 7332
01> -16421
00> 7341
01> -16429
00> 7353
01> -16432
00> 7344
01> -16440
00> 7321
01> -16439
00> 7319
01> -16432
00> 7331
01> -16434
00> 7349
01> -16437
00> 7344
01> -16440
00> 7319
01> -16438
00> 7303
01> -16433
00> 7334
01> -16424
00> 7362
01> -16445
00> 7319
01> -16444
00> 7294
01> -16420
00> 7291
01> -16387
00> 7325
01> -16375
00> 7343
01> -16387
00> 7331
01> -16391
00> 7307
01> -16375
00> 7297
01> -16347
00> 7305
01> -16360
00> 7319
01> -16388
00> 7329
01> -16397
00> 7308
01> -16376
00> 7298
01> -16351
00> 7309
01> -16346
00> 7329
01> -16366
00> 7337
01> -16372
00> 7305
01> -16367
00> 7285
01> -16366
00> 7295
01> -16371
00> 7330
01> -16381
00> 7333
01> -16389
00> 7307
01> -16373
00> 7296
01> -16358
00> 7308
01> -16360
00> 7313
01> -16380
00> 7299
01> -16397
00> 7280
01> -16386
00> 7284
01> -16369
00> 7294
01> -16371
00> 7311
01> -16392
00> 7311
01> -16400
00> 7288
01> -16386
00> 7280
01> -16360
00> 7299
01> -16357
00> 7314
01> -16384
00> 7318
01> -16382
00> 7298
01> -16366
00> 7283
01> -16347
00> 7299
01> -16342
00> 7316
01> -16354
00> 7319
01> -16372
00> 7298
01> -16370
00> 7276
01> -16362
00> 7289
01> -16359
00> 7307
01> -16352
00> 7305
01> -16369
00> 7301
01> -16352
00> 7293
01> -16344
00> 7301
01> -16352
00> 7309
01> -16370
00> 7317
01> -16372
00> 7298
01> -16378
00> 7299
01> -16359
00> 7311
01> -16354
00> 7296
01> -16340
00> 7294
01> -16343
00> 7302
01> -16328
00> 7309
01> -16306
00> 7329
01> -16311
00> 7322
01> -16327
00> 7344
01> -16373
00> 7333
01> -16358
00> 7314
01> -16334
00> 7305
01> -16319
00> 7339
01> -16331
00> 7351
01> -16357
00> 7343
01> -16341
00> 7329
01> -16309
00> 7343
01> -16322
00> 7355
01> -16344
00> 7331
01> -16356
00> 7304
01> -16331
00> 7313
01> -16294
00> 7344
01> -16306
00> 7374
01> -16330
00> 7308
01> -16335
00> 7311
01> -16318
00> 7303
01> -16329
00> 7296
01> -16352
00> 7369
01> -16319
00> 7318
01> -16313
00> 7331
01> -16339
00> 7309
01> -16340
00> 7265
01> -16361
00> 7316
01> -16382
00> 7327
01> -16398
00> 7259
01> -16407
00> 7230
01> -16372
00> 7241
01> -16379
00> 7280
01> -16428
00> 7249
01> -16447
00> 7238
01> -16409
00> 7306
01> -16405
00> 7289
01> -16426
00> 7271
01> -16450
00> 7268
01> -16449
00> 7239
01> -16428
00> 7222
01> -16391
00> 7282
01> -16409
00> 7296
01> -16440
00> 7256
01> -16441
00> 7241
01> -16432
00> 7234
01> -16399
00> 7252
01> -16406
00> 7303
01> -16433
00> 7304
01> -16422
00> 7251
01> -16399
00> 7243
01> -16418
00> 7250
01> -16402
00> 7300
01> -16410
00> 7270
01> -16424
00> 7267
01> -16425
00> 7261
01> -16403
00> 7264
01> -16404
00> 7210
01> -16409
00> 7222
01> -16402
00> 7287
01> -16425
00> 7263
01> -16399
00> 7263
01> -16397
00> 7214
01> -16392
00> 7281
01> -16434
00> 7299
01> -16417
00> 7285
01> -16412
00> 7273
01> -16399
00> 7231
01> -16402
00> 7241
01> -16441
00> 7277
01> -16434
00> 7251
01> -16409
00> 7249
01> -16394
00> 7259
01> -16411
00> 7281
01> -16459
00> 7279
01> -16409
00> 7231
01> -16384
00> 7236
01> -16406
00> 7287
01> -16416
00> 7261
01> -16437
00> 7249
01> -16445
00> 7229
01> -16419
00> 7208
01> -16431
00> 7241
01> -16437
00> 7278
01> -16435
00> 7243
01> -16442
00> 7220
01> -16437
00> 7225
01> -16437
00> 7231
01> -16434
00> 7247
01> -16422
00> 7234
01> -16419
00> 7223
01> -16434
00> 7238
01> -16421
00> 7258
01> -16404
00> 7228
01> -16437
00> 7219
01> -16468
00> 7245
01> -16444
00> 7251
01> -16433
00> 7240
01> -16448
00> 7258
01> -16451
00> 7216
01> -16447
00> 7185
01> -16446
00> 7186
01> -16405
00> 7263
01> -16406
00> 7268
01> -16469
00> 7224
01> -16437
00> 7226
01> -16438
00> 7216
01> -16419
00> 7255
01> -16429
00> 7269
01> -16433
00> 7246
01> -16415
00> 7219
01> -16386
00> 7233
01> -16367
00> 7264
01> -16374
00> 7320
01> -16356
00> 7252
01> -16322
00> 7295
01> -16287
00> 7321
01> -16262
00> 7327
01> -16245
00> 7323
01> -16234
00> 7332
01> -16194
00> 7324
01> -16142
00> 7346
01> -16047
00> 7386
01> -16012
00> 7445
01> -15971
00> 7450
01> -15920
00> 7476
01> -15851
00> 7494
01> -15800
00> 7526
01> -15808
00> 7536
01> -15826
00> 7473
01> -15814
00> 7487
01> -15803
00> 7492
01> -15835
00> 7486
01> -15872
00> 7516
01> -15921
00> 7501
01> -15959
00> 7438
01> -15990
00> 7420
01> -16003
00> 7454
01> -16041
00> 7478
01> -16074
00> 7404
01> -16063
00> 7353
01> -16092
00> 7426
01> -16161
00> 7430
01> -16194
00> 7413
01> -16216
00> 7378
01> -16242
00> 7387
01> -16239
00> 7360
01> -16254
00> 7385
01> -16259
00> 7384
01> -16277
00> 7374
01> -16301
00> 7362
01> -16316
00> 7383
01> -16310
00> 7396
01> -16357
00> 7389
01> -16392
00> 7316
01> -16405
00> 7295
01> -16389
00> 7358
01> -16359
00> 7374
01> -16395
00> 7384
01> -16436
00> 7308
01> -16411
00> 7279
01> -16399
00> 7365
01> -16362
00> 7371
01> -16399
00> 7371
01> -16417
00> 7354
01> -16394
00> 7294
01> -16390
00> 7324
01> -16408
00> 7353
01> -16431
00> 7341
01> -16429
00> 7319
01> -16425
00> 7280
01> -16436
00> 7346
01> -16397
00> 7356
01> -16409
00> 7358
01> -16454
00> 7318
01> -16490
00> 7324
01> -16441
00> 7327
01> -16435
00> 7332
01> -16429
00> 7346
01> -16432
00> 7325
01> -16419
00> 7296
01> -16437
00> 7353
01> -16420
00> 7334
01> -16461
00> 7288
01> -16492
00> 7338
01> -16462
00> 7335
01> -16423
00> 7309
01> -16429
00> 7313
01> -16472
00> 7343
01> -16437
00> 7345
01> -16437
00> 7294
01> -16460
00> 7280
01> -16429
00> 7316
01> -16460
00> 7308
01> -16464
00> 7299
01> -16438
00> 7309
01> -16425
00> 7316
01> -16413
00> 7339
01> -16427
00> 7346
01> -16427
00> 7329
01> -16437
00> 7268
01> -16453
00> 7295
01> -16427
00> 7359
01> -16435
00> 7333
01> -16447
00> 7283
01> -16442
00> 7291
01> -16452
00> 7321
01> -16408
00> 7343
01> -16415
00> 7342
01> -16439
00> 7340
01> -16435
00> 7285
01> -16409
00> 7304
01> -16407
00> 7336
01> -16432
00> 7293
01> -16439
00> 7345
01> -16429
00> 7301
01> -16436
00> 7273
01> -16434
00> 7328
01> -16395
00> 7336
01> -16397
00> 7347
01> -16426
00> 7271
01> -16391
00> 7298
01> -16375
00> 7363
01> -16414
00> 7326
01> -16464
00> 7303
01> -16453
00> 7324
01> -16416
00> 7304
01> -16429
00> 7271
01> -16447
00> 7320
01> -16436
00> 7345
01> -16397
00> 7343
01> -16407
00> 7308
01> -16401
00> 7283
01> -16429
00> 7306
01> -16465
00> 7339
01> -16451
00> 7300
01> -16427
00> 7298
01> -16384
00> 7344
01> -16398
00> 7328
01> -16439
00> 7294
01> -16433
00> 7349
01> -16397
00> 7302
01> -16431
00> 7316
01> -16472
00> 7330
01> -16461
00> 7293
01> -16442
00> 7238
01> -16416
00> 7288
01> -16405
00> 7354
01> -16426
00> 7359
01> -16464
00> 7321
01> -16452
00> 7278
01> -16442
00> 7248
01> -16449
00> 7264
01> -16453
00> 7328
01> -16403
00> 7260
01> -16390
00> 7256
01> -16408
00> 7279
01> -16433
00> 7262
01> -16412
00> 7238
01> -16419
00> 7234
01> -16457
00> 7219
01> -16454
00> 7155
01> -16427
00> 7226
01> -16405
00> 7263
01> -16429
00> 7246
01> -16453
00> 7201
01> -16424
00> 7191
01> -16392
00> 7225
01> -16442
00> 7209
01> -16450
00> 7203
01> -16492
00> 7221
01> -16461
00> 7198
01> -16422
00> 7190
01> -16414
00> 7258
01> -16387
00> 7216
01> -16464
00> 7217
01> -16463
00> 7208
01> -16426
00> 7188
01> -16449
00> 7253
01> -16461
00> 7242
01> -16434
00> 7231
01> -16403
00> 7213
01> -16428
00> 7194
01> -16433
00> 7276
01> -16444
00> 7244
01> -16474
00> 7164
01> -16463
00> 7229
01> -16416
00> 7241
01> -16426
00> 7233
01> -16415
00> 7233
01> -16423
00> 7183
01> -16434
00> 7216
01> -16438
00> 7250
01> -16416
00> 7246
01> -16447
00> 7194
01> -16486
00> 7205
01> -16444
00> 7117
01> -16417
00> 7239
01> -16413
00> 7293
01> -16439
00> 7231
01> -16419
00> 7223
01> -16426
00> 7194
01> -16426
00> 7208
01> -16450
00> 7278
01> -16452
00> 7241
01> -16471
00> 7174
01> -16444
00> 7209
01> -16425
00> 7237
01> -16419
00> 7236
01> -16441
00> 7226
01> -16416
00> 7232
01> -16422
00> 7196
01> -16410
00> 7248
01> -16467
00> 7271
01> -16461
00> 7211
01> -16459
00> 7198
01> -16406
00> 7139
01> -16421
00> 7179
01> -16409
00> 7268
01> -16439
00> 7225
01> -16453
00> 7242
01> -16426
00> 7201
01> -16434
00> 7221
01> -16427
00> 7263
01> -16462
00> 7231
01> -16477
00> 7218
01> -16456
00> 7196
01> -16441
00> 7248
01> -16424
00> 7264
01> -16451
00> 7257
01> -16451
00> 7229
01> -16446
00> 7193
01> -16445
00> 7223
01> -16452
00> 7236
01> -16435
00> 7243
01> -16476
00> 7223
01> -16459
00> 7209
01> -16439
00> 7243
01> -16442
00> 7241
01> -16453
00> 7245
01> -16457
00> 7228
01> -16466
00> 7223
01> -16455
00> 7242
01> -16455
00> 7254
01> -16469
00> 7238
01> -16469
00> 7225
01> -16455
00> 7239
01> -16426
00> 7249
01> -16425
00> 7266
01> -16440
00> 7248
01> -16443
00> 7231
01> -16436
00> 7213
01> -16424
00> 7240
01> -16416
00> 7267
01> -16414
00> 7258
01> -16405
00> 7230
01> -16384
00> 7216
01> -16366
00> 7238
01> -16363
00> 7246
01> -16380
00> 7234
01> -16381
00> 7209
01> -16368
00> 7208
01> -16359
00> 7236
01> -16368
00> 7239
01> -16388
00> 7215
01> -16396
00> 7221
01> -16374
00> 7221
01> -16364
00> 7233
01> -16379
00> 7248
01> -16389
00> 7230
01> -16413
00> 7219
01> -16392
00> 7216
01> -16384
00> 7230
01> -16400
00> 7248
01> -16406
00> 7236
01> -16397
00> 7213
01> -16388
00> 7214
01> -16386
00> 7244
01> -16387
00> 7258
01> -16406
00> 7251
01> -16417
00> 7230
01> -16407
00> 7213
01> -16393
00> 7234
01> -16391
00> 7243
01> -16404
00> 7238
01> -16415
00> 7228
01> -16406
00> 7229
01> -16393
00> 7242
01> -16402
00> 7256
01> -16420
00> 7244
01> -16421
00> 7208
01> -16415
00> 7209
01> -16406
00> 7230
01> -16407
00> 7259
01> -16417
00> 7251
01> -16426
00> 7220
01> -16413
00> 7214
01> -16396
00> 7239
01> -16402
00> 7246
01> -16426
00> 7225
01> -16441
00> 7217
01> -16423
00> 7219
01> -16409
00> 7238
01> -16413
00> 7251
01> -16426
00> 7248
01> -16425
00> 7231
01> -16404
00> 7222
01> -16384
00> 7242
01> -16384
00> 7261
01> -16402
00> 7256
01> -16414
00> 7228
01> -16409
00> 7224
01> -16401
00> 7245
01> -16399
00> 7256
01> -16422
00> 7249
01> -16425
00> 7235
01> -16412
00> 7224
01> -16414
00> 7239
01> -16411
00> 7252
01> -16414
00> 7243
01> -16416
00> 7219
01> -16414
00> 7209
01> -16409
00> 7235
01> -16409
00> 7255
01> -16424
00> 7245
01> -16432
00> 7219
01> -16426
00> 7216
01> -16406
00> 7235
01> -16403
00> 7248
01> -16417
00> 7246
01> -16419
00> 7223
01> -16407
00> 7209
01> -16411
00> 7223
01> -16426
00> 7241
01> -16442
00> 7239
01> -16445
00> 7216
01> -16433
00> 7209
01> -16413
00> 7229
01> -16414
00> 7251
01> -16436
00> 7239
01> -16450
00> 7216
01> -16434
00> 7212
01> -16418
00> 7232
01> -16412
00> 7244
01> -16427
00> 7233
01> -16432
00> 7214
01> -16422
00> 7205
01> -16414
00> 7229
01> -16413
00> 7247
01> -16433
00> 7240
01> -16444
00> 7214
01> -16437
00> 7199
01> -16421
00> 7218
01> -16424
00> 7243
01> -16448
00> 7231
01> -16469
00> 7204
01> -16459
00> 7201
01> -16437
00> 7219
01> -16432
00> 7238
01> -16443
00> 7229
01> -16454
00> 7216
01> -16453
00> 7211
01> -16450
00> 7224
01> -16449
00> 7241
01> -16457
00> 7235
01> -16462
00> 7213
01> -16451
00> 7212
01> -16440
00> 7228
01> -16444
00> 7243
01> -16456
00> 7236
01> -16462
00> 7215
01> -16452
00> 7218
01> -16434
00> 7238
01> -16439
00> 7245
01> -16460
00> 7241
01> -16453
00> 7221
01> -16441
00> 7213
01> -16426
00> 7229
01> -16430
00> 7250
01> -16447
00> 7249
01> -16454
00> 7227
01> -16442
00> 7218
01> -16432
00> 7236
01> -16441
00> 7253
01> -16462
00> 7248
01> -16465
00> 7229
01> -16448
00> 7219
01> -16430
00> 7224
01> -16432
00> 7247
01> -16449
00> 7247
01> -16456
00> 7235
01> -16447
00> 7225
01> -16438
00> 7244
01> -16436
00> 7259
01> -16449
00> 7253
01> -16466
00> 7235
01> -16453
00> 7222
01> -16440
00> 7243
01> -16439
00> 7263
01> -16451
00> 7263
01> -16466
00> 7245

00> 7240
01> -16441
00> 7252
01> -16439
00> 7274
01> -16447
00> 7269
01> -16448
00> 7239
01> -16441
00> 7218
01> -16426
00> 7241
01> -16422
00> 7271
01> -16444
00> 7266
01> -16458
00> 7242
01> -16445
00> 7228
01> -16425
00> 7242
01> -16431
00> 7261
01> -16451
00> 7259
01> -16461
00> 7241
01> -16456
00> 7229
01> -16448
00> 7239
01> -16449
00> 7252
01> -16458
00> 7255
01> -16458
00> 7244
01> -16454
00> 7229
01> -16451
00> 7241
01> -16448
00> 7266
01> -16454
00> 7271
01> -16457
00> 7248
01> -16453
00> 7235
01> -16440
00> 7244
01> -16439
00> 7266
01> -16450
00> 7270
01> -16460
00> 7250
01> -16454
00> 7253
01> -16432
00> 7266
01> -16429
00> 7269
01> -16447
00> 7262
01> -16453
00> 7243
01> -16437
00> 7233
01> -16425
00> 7242
01> -16417
00> 7258
01> -16416
00> 7258
01> -16417
00> 7238
01> -16411
00> 7211
01> -16402
00> 7218
01> -16407
00> 7244
01> -16417
00> 7243
01> -16422
00> 7228
01> -16405
00> 7221
01> -16385
00> 7244
01> -16385
00> 7264
01> -16406
00> 7262
01> -16415
00> 7245
01> -16406
00> 7231
01> -16398
00> 7237
01> -16408
00> 7251
01> -16424
00> 7254
01> -16429
00> 7229
01> -16421
00> 7221
01> -16413
00> 7239
01> -16416
00> 7255
01> -16424
00> 7256
01> -16421
00> 7229
01> -16417
00> 7213
01> -16416
00> 7224
01> -16421
00> 7240
01> -16428
00> 7247
01> -16439
00> 7233
01> -16428
00> 7221
01> -16409
00> 7230
01> -16406
00> 7244
01> -16421
00> 7239
01> -16445
00> 7221
01> -16448
00> 7213
01> -16442
00> 7232
01> -16438
00> 7251
01> -16442
00> 7244
01> -16451
00> 7228
01> -16444
00> 7213
01> -16432
00> 7217
01> -16430
00> 7234
01> -16437
00> 7248
01> -16439
00> 7228
01> -16436
00> 7217
01> -16430
00> 7233
01> -16426
00> 7249
01> -16434
00> 7241
01> -16439
00> 7215
01> -16432
00> 7214
01> -16419
00> 7231
01> -16414
00> 7238
01> -16425
00> 7240
01> -16438
00> 7226
01> -16425
00> 7215
01> -16409
00> 7233
01> -16404
00> 7266
01> -16404
00> 7281
01> -16401
00> 7269
01> -16384
00> 7268
01> -16361
00> 7278
01> -16363
00> 7294
01> -16369
00> 7300
01> -16330
00> 7278
01> -16311
00> 7278
01> -16282
00> 7321
01> -16219
00> 7357
01> -16185
00> 7350
01> -16176
00> 7345
01> -16137
00> 7358
01> -16079
00> 7387
01> -16011
00> 7429
01> -15954
00> 7460
01> -15899
00> 7478
01> -15830
00> 7488
01> -15776
00> 7499
01> -15742
00> 7516
01> -15726
00> 7520
01> -15720
00> 7518
01> -15708
00> 7508
01> -15699
00> 7511
01> -15713
00> 7527
01> -15728
00> 7530
01> -15738
00> 7499
01> -15758
00> 7466
01> -15761
00> 7467
01> -15773
00> 7480
01> -15816
00> 7468
01> -15858
00> 7447
01> -15886
00> 7431
01> -15888
00> 7435
01> -15896
00> 7444
01> -15919
00> 7445
01> -15941
00> 7424
01> -15961
00> 7411
01> -15971
00> 7414
01> -15994
00> 7438
01> -16021
00> 7431
01> -16051
00> 7387
01> -16069
00> 7363
01> -16076
00> 7378
01> -16079
00> 7388
01> -16099
00> 7381
01> -16122
00> 7341
01> -16144
00> 7328
01> -16142
00> 7333
01> -16150
00> 7343
01> -16177
00> 7340
01> -16197
00> 7331
01> -16205
00> 7313
01> -16216
00> 7311
01> -16227
00> 7324
01> -16238
00> 7324
01> -16259
00> 7311
01> -16272
00> 7291
01> -16273
00> 7291
01> -16282
00> 7303
01> -16302
00> 7308
01> -16315
00> 7299
01> -16319
00> 7303
01> -16319
00> 7305
01> -16331
00> 7303
01> -16349
00> 7288
01> -16351
00> 7259
01> -16352
00> 7232
01> -16352
00> 7243
01> -16361
00> 7270
01> -16371
00> 7273
01> -16387
00> 7251
01> -16387
00> 7231
01> -16373
00> 7241
01> -16371
00> 7263
01> -16382
00> 7261
01> -16382
00> 7243
01> -16392
00> 7241
01> -16381
00> 7247
01> -16387
00> 7258
01> -16408
00> 7254
01> -16411
00> 7234
01> -16411
00> 7225
01> -16398
00> 7234
01> -16382
00> 7256
01> -16391
00> 7267
01> -16401
00> 7256
01> -16404
00> 7233
01> -16402
00> 7234
01> -16394
00> 7253
01> -16394
00> 7260
01> -16404
00> 7239
01> -16405
00> 7233
01> -16402
00> 7229
01> -16412
00> 7240
01> -16429
00> 7254
01> -16435
00> 7246
01> -16416
00> 7231
01> -16402
00> 7236
01> -16395
00> 7248
01> -16402
00> 7251
01> -16416
00> 7238
01> -16422
00> 7226
01> -16409
00> 7221
01> -16404
00> 7244
01> -16418
00> 7246
01> -16432
00> 7234
01> -16434
00> 7216
01> -16419
00> 7232
01> -16416
00> 7258
01> -16430
00> 7252
01> -16443
00> 7229
01> -16438
00> 7222
01> -16414
00> 7230
01> -16405
00> 7243
01> -16419
00> 7243
01> -16441
00> 7234
01> -16432
00> 7214
01> -16412
00> 7219
01> -16406
00> 7248
01> -16415
00> 7259
01> -16430
00> 7241
01> -16436
00> 7215
01> -16416
00> 7220
01> -16405
00> 7239
01> -16430
00> 7251
01> -16447
00> 7239
01> -16440
00> 7218
01> -16425
00> 7225
01> -16413
00> 7233
01> -16431
00> 7237
01> -16438
00> 7233
01> -16429
00> 7216
01> -16420
00> 7208
01> -16416
00> 7227
01> -16420
00> 7229
01> -16432
00> 7216
01> -16431
00> 7204
01> -16425
00> 7209
01> -16423
00> 7231
01> -16426
00> 7235
01> -16441
00> 7209
01> -16449
00> 7198
01> -16433
00> 7205
01> -16433
00> 7234
01> -16447
00> 7237
01> -16457
00> 7210
01> -16449
00> 7190
01> -16430
00> 7184
01> -16423
00> 7194
01> -16444
00> 7217
01> -16462
00> 7213
01> -16462
00> 7193
01> -16449
00> 7198
01> -16442
00> 7212
01> -16456
00> 7214
01> -16462
00> 7200
01> -16449
00> 7194
01> -16432
00> 7194
01> -16447
00> 7208
01> -16464
00> 7223
01> -16461
00> 7211
01> -16451
00> 7197
01> -16436
00> 7204
01> -16440
00> 7214
01> -16459
00> 7214
01> -16473
00> 7213
01> -16457
00> 7193
01> -16444
00> 7189
01> -16434
00> 7199
01> -16462
00> 7221
01> -16489
00> 7207
01> -16477
00> 7193
01> -16443
00> 7194
01> -16411
00> 7206
01> -16416
00> 7212
01> -16434
00> 7207
01> -16428
00> 7180
01> -16439
00> 7186
01> -16437
00> 7211
01> -16441
00> 7208
01> -16455
00> 7210
01> -16451
00> 7187
01> -16435
00> 7189
01> -16417
00> 7209
01> -16429
00> 7218
01> -16441
00> 7197
01> -16441
00> 7195
01> -16434
00> 7189
01> -16449
00> 7199
01> -16463
00> 7217
01> -16453
00> 7211
01> -16436
00> 7196
01> -16440
00> 7199
01> -16454
00> 7223
01> -16449
00> 7216
01> -16442
00> 7212
01> -16448
00> 7199
01> -16426
00> 7207
01> -16416
00> 7216
01> -16426
00> 7216
01> -16438
00> 7219
01> -16423
00> 7194
01> -16400
00> 7179
01> -16409
00> 7203
01> -16421
00> 7219
01> -16427
00> 7194
01> -16426
00> 7197
01> -16431
00> 7199
01> -16389
00> 7209
01> -16389
00> 7212
01> -16424
00> 7201
01> -16440
00> 7214
01> -16427
00> 7188
01> -16439
00> 7182
01> -16487
00> 7195
01> -16497
00> 7186
01> -16491
00> 7169
01> -16474
00> 7163
01> -16483
00> 7172
01> -16509
00> 7144
01> -16520
00> 7185
01> -16527
00> 7183
01> -16504
00> 7176
01> -16512
00> 7358
01> -16516
00> 7359
01> -16544
00> 7239
01> -16487
00> 7179
01> -16449
00> 7174
01> -16452
00> 7176
01> -16479
00> 7177
01> -16508
00> 7194
01> -16466
00> 7221
01> -16435
00> 7201
01> -16471
00> 7178
01> -16463
00> 7182
01> -16479
00> 7156
01> -16514
00> 7193
01> -16524
00> 7186
01> -16511
00> 7182
01> -16497
00> 7174
01> -16494
00> 7198
01> -16509
00> 7143
01> -16498
00> 7153
01> -16477
00> 7209
01> -16469
00> 7194
01> -16514
00> 7165
01> -16530
00> 7158
01> -16506
00> 7135
01> -16462
00> 7134
01> -16475
00> 7247
01> -16512
00> 7218
01> -16514
00> 7160
01> -16496
00> 7173
01> -16494
00> 7188
01> -16497
00> 7201
01> -16511
00> 7185
01> -16515
00> 7149
01> -16496
00> 7161
01> -16507
00> 7216
01> -16499
00> 7194
01> -16487
00> 7209
01> -16484
00> 7189
01> -16496
00> 7185
01> -16503
00> 7199
01> -16497
00> 7198
01> -16482
00> 7200
01> -16467
00> 7195
01> -16454
00> 7244
01> -16441
00> 7256
01> -16448
00> 7188
01> -16458
00> 7184
01> -16416
00> 7183
01> -16418
00> 7234
01> -16424
00> 7266
01> -16404
00> 7233
01> -16394
00> 7262
01> -16314
00> 7283
01> -16257
00> 7263
01> -16268
00> 7309
01> -16225
00> 7322
01> -16186
00> 7348
01> -16129
00> 7339
01> -16030
00> 7403
01> -15957
00> 7456
01> -15876
00> 7451
01> -15857
00> 7468
01> -15821
00> 7508
01> -15784
00> 7516
01> -15757
00> 7514
01> -15732
00> 7507
01> -15702
00> 7536
01> -15699
00> 7491
01> -15717
00> 7538
01> -15732
00> 7560
01> -15723
00> 7532
01> -15766
00> 7474
01> -15791
00> 7476
01> -15783
00> 7495
01> -15809
00> 7478
01> -15841
00> 7476
01> -15843
00> 7494
01> -15865
00> 7456
01> -15910
00> 7447
01> -15938
00> 7415
01> -15928
00> 7457
01> -15961
00> 7444
01> -15996
00> 7423
01> -16014
00> 7416
01> -16049
00> 7423
01> -16056
00> 7403
01> -16054
00> 7397
01> -16061
00> 7368
01> -16074
00> 7386
01> -16079
00> 7361
01> -16112
00> 7403
01> -16129
00> 7359
01> -16149
00> 7365
01> -16165
00> 7367
01> -16156
00> 7373
01> -16171
00> 7331
01> -16171
00> 7347
01> -16177
00> 7356
01> -16202
00> 7326
01> -16249
00> 7338
01> -16260
00> 7304
01> -16274
00> 7319
01> -16298
00> 7346
01> -16267
00> 7309
01> -16254
00> 7309
01> -16280
00> 7339
01> -16259
00> 7301
01> -16292
00> 7283
01> -16326
00> 7291
01> -16296
00> 7293
01> -16282
00> 7298
01> -16316
00> 7287
01> -16345
00> 7279
01> -16324
00> 7219
01> -16349
00> 7275
01> -16361
00> 7299
01> -16354
00> 7299
01> -16344
00> 7233
01> -16378
00> 7284
01> -16372
00> 7283
01> -16361
00> 7285
01> -16374
00> 7293
01> -16354
00> 7257
01> -16382
00> 7218
01> -16382
00> 7276
01> -16379
00> 7285
01> -16348
00> 7278
01> -16405
00> 7223
01> -16415
00> 7180
01> -16411
00> 7269
01> -16376
00> 7316
01> -16384
00> 7273
01> -16387
00> 7261
01> -16407
00> 7231
01> -16436
00> 7234
01> -16399
00> 7276
01> -16379
00> 7273
01> -16417
00> 7277
01> -16382
00> 7220
01> -16367
00> 7228
01> -16371
00> 7250
01> -16418
00> 7257
01> -16448
00> 7220
01> -16441
00> 7208
01> -16417
00> 7218
01> -16421
00> 7230
01> -16461
00> 7189
01> -16502
00> 7169
01> -16477
00> 7114
01> -16479
00> 7118
01> -16518
00> 7171
01> -16569
00> 7125
01> -16548
00> 7133
01> -16541
00> 7093
01> -16549
00> 7129
01> -16534
00> 7146
01> -16571
00> 7141
01> -16553
00> 7148
01> -16539
00> 7111
01> -16546
00> 7113
01> -16541
00> 7147
01> -16547
00> 7141
01> -16562
00> 7121
01> -16542
00> 7102
01> -16534
00> 7133
01> -16517
00> 7162
01> -16531
00> 7129
01> -16549
00> 7091
01> -16562
00> 7071
01> -16569
00> 7125
01> -16528
00> 7172
01> -16567
00> 7118
01> -16590
00> 7098
01> -16577
00> 7088
01> -16548
00> 7128
01> -16544
00> 7137
01> -16545
00> 7133
01> -16556
00> 7123
01> -16557
00> 7120
01> -16545
00> 7125
01> -16546
00> 7123
01> -16564
00> 7133
01> -16556
00> 7121
01> -16547
00> 7088
01> -16543
00> 7121
01> -16547
00> 7134
01> -16576
00> 7099
01> -16598
00> 7125
01> -16601
00> 7131
01> -16572
00> 7117
01> -16577
00> 7125
01> -16581
00> 7127
01> -16574
00> 7137
01> -16557
00> 7126
01> -16558
00> 7119
01> -16603
00> 7111
01> -16599
00> 7143
01> -16576
00> 7111
01> -16579
00> 7111
01> -16572
00> 7118
01> -16584
00> 7154
01> -16591
00> 7116
01> -16594
00> 7139
01> -16573
00> 7121
01> -16574
00> 7134
01> -16562
00> 7146
01> -16550
00> 7094
01> -16580
00> 7101
01> -16593
00> 7166
01> -16527
00> 7134
01> -16542
00> 7154
01> -16547
00> 7152
01> -16552
00> 7148
01> -16539
00> 7147
01> -16506
00> 7160
01> -16478
00> 7165
01> -16485
00> 7160
01> -16516
00> 7156
01> -16484
00> 7164
01> -16424
00> 7212
01> -16406
00> 7234
01> -16373
00> 7252
01> -16322
00> 7217
01> -16282
00> 7226
01> -16221
00> 7306
01> -16160
00> 7334
01> -16145
00> 7331
01> -16121
00> 7331
01> -16071
00> 7376
01> -16007
00> 7399
01> -15976
00> 7412
01> -15960
00> 7415
01> -15932
00> 7421
01> -15896
00> 7394
01> -15841
00> 7441
01> -15838
00> 7489
01> -15864
00> 7467
01> -15889
00> 7408
01> -15888
00> 7446
01> -15857
00> 7478
01> -15844
00> 7496
01> -15884
00> 7458
01> -15929
00> 7423
01> -15937
00> 7434
01> -15915
00> 7421
01> -15922
00> 7435
01> -15913
00> 7458
01> -15975
00> 7376
01> -15999
00> 7414
01> -15989
00> 7452
01> -15984
00> 7421
01> -16034
00> 7414
01> -16062
00> 7375
01> -16066
00> 7339
01> -16058
00> 7388
01> -16076
00> 7432
01> -16103
00> 7419
01> -16119
00> 7391
01> -16110
00> 7408
01> -16116
00> 7364
01> -16139
00> 7384
01> -16176
00> 7403
01> -16159
00> 7373
01> -16184
00> 7336
01> -16207
00> 7301
01> -16181
00> 7313
01> -16207
00> 7359
01> -16229
00> 7379
01> -16221
00> 7366
01> -16216
00> 7330
01> -16239
00> 7341
01> -16264
00> 7356
01> -16268
00> 7330
01> -16261
00> 7296
01> -16264
00> 7293
01> -16291
00> 7334
01> -16306
00> 7348
01> -16334
00> 7324
01> -16333
00> 7299
01> -16299
00> 7297
01> -16311
00> 7331
01> -16349
00> 7337
01> -16341
00> 7286
01> -16319
00> 7308
01> -16301
00> 7284
01> -16356
00> 7351
01> -16359
00> 7321
01> -16376
00> 7276
01> -16369
00> 7287
01> -16369
00> 7310
01> -16336
00> 7335
01> -16349
00> 7313
01> -16390
00> 7301
01> -16357
00> 7284
01> -16359
00> 7303
01> -16388
00> 7303
01> -16395
00> 7307
01> -16421
00> 7310
01> -16392
00> 7280
01> -16402
00> 7246
01> -16394
00> 7328
01> -16400
00> 7322
01> -16382
00> 7291
01> -16377
00> 7239
01> -16381
00> 7264
01> -16399
00> 7304
01> -16408
00> 7313
01> -16414
00> 7284
01> -16403
00> 7268
01> -16427
00> 7272
01> -16410
00> 7292
01> -16386
00> 7340
01> -16418
00> 7274
01> -16412
00> 7254
01> -16440
00> 7304
01> -16424
00> 7253
01> -16424
00> 7278
01> -16406
00> 7294
01> -16411
00> 7264
01> -16391
00> 7278
01> -16396
00> 7275
01> -16436
00> 7284
01> -16422
00> 7249
01> -16428
00> 7297
01> -16414
00> 7299
01> -16395
00> 7283
01> -16437
00> 7275
01> -16446
00> 7226
01> -16444
00> 7240
01> -16418
00> 7284
01> -16432
00> 7293
01> -16458
00> 7268
01> -16439
00> 7269
01> -16433
00> 7253
01> -16410
00> 7269
01> -16432
00> 7301
01> -16443
00> 7282
01> -16479
00> 7238
01> -16427
00> 7246
01> -16448
00> 7291
01> -16439
00> 7310
01> -16429
00> 7269
01> -16463
00> 7279
01> -16456
00> 7268
01> -16427
00> 7256
01> -16421
00> 7246
01> -16432
00> 7311
01> -16447
00> 7314
01> -16449
00> 7268
01> -16450
00> 7279
01> -16420
00> 7229
01> -16446
00> 7289
01> -16466
00> 7292
01> -16459
00> 7260
01> -16434
00> 7270
01> -16422
00> 7286
01> -16429
00> 7275
01> -16454
00> 7224
01> -16449
00> 7263
01> -16443
00> 7298
01> -16447
00> 7286
01> -16462
00> 7284
01> -16462
00> 7276
01> -16457
00> 7294
01> -16420
00> 7271
01> -16438
00> 7286
01> -16457
00> 7270
01> -16446
00> 7269
01> -16446
00> 7286
01> -16450
00> 7257
01> -16422
00> 7262
01> -16411
00> 7303
01> -16454
00> 7303
01> -16457
00> 7278
01> -16447
00> 7269
01> -16464
00> 7294
01> -16472
00> 7249
01> -16465
00> 7266
01> -16471
00> 7271
01> -16439
00> 7297
01> -16434
00> 7277
01> -16452
00> 7299
01> -16463
00> 7256
01> -16476
00> 7248
01> -16446
00> 7282
01> -16432
00> 7313
01> -16454
00> 7296
01> -16482
00> 7281
01> -16477
00> 7219
01> -16451
00> 7265
01> -16444
00> 7307
01> -16434
00> 7299
01> -16451
00> 7293
01> -16462
00> 7262
01> -16486
00> 7251
01> -16476
00> 7244
01> -16485
00> 7319
01> -16455
00> 7284
01> -16444
00> 7234
01> -16431
00> 7259
01> -16457
00> 7273
01> -16468
00> 7254
01> -16505
00> 7295
01> -16501
00> 7247
01> -16451
00> 7261
01> -16431
00> 7296
01> -16456
00> 7286
01> -16471
00> 7200
01> -16464
00> 7235
01> -16452
00> 7254
01> -16445
00> 7271
01> -16459
00> 7295
01> -16449
00> 7291
01> -16464
00> 7264
01> -16482
00> 7256
01> -16448
00> 7267
01> -16446
00> 7256
01> -16445
00> 7250
01> -16459
00> 7203
01> -16489
00> 7188
01> -16459
00> 7241
01> -16457
00> 7238
01> -16450
00> 7194
01> -16465
00> 7169
01> -16454
00> 7229
01> -16470
00> 7207
01> -16491
00> 7202
01> -16474
00> 7191
01> -16477
00> 7171
01> -16485
00> 7194
01> -16466
00> 7189
01> -16461
00> 7187
01> -16492
00> 7212
01> -16478
00> 7184
01> -16447
00> 7203
01> -16475
00> 7220
01> -16469
00> 7223
01> -16472
00> 7200
01> -16492
00> 7167
01> -16456
00> 7166
01> -16460
00> 7212
01> -16474
00> 7193
01> -16516
00> 7178
01> -16471
00> 7229
01> -16474
00> 7222
01> -16478
00> 7199
01> -16502
00> 7229
01> -16499
00> 7221
01> -16497
00> 7178
01> -16470
00> 7173
01> -16459
00> 7203
01> -16502
00> 7182
01> -16494
00> 7171
01> -16474
00> 7183
01> -16477
00> 7209
01> -16474
00> 7213
01> -16496
00> 7207
01> -16523
00> 7208
01> -16511
00> 7177
01> -16502
00> 7171
01> -16479
00> 7203
01> -16464
00> 7204
01> -16497
00> 7193
01> -16507
00> 7195
01> -16477
00> 7203
01> -16456
00> 7228
01> -16465
00> 7245
01> -16483
00> 7221
01> -16464
00> 7172
01> -16456
00> 7198
01> -16421
00> 7242
01> -16422
00> 7248
01> -16426
00> 7233
01> -16403
00> 7217
01> -16383
00> 7265
01> -16342
00> 7286
01> -16288
00> 7300
01> -16262
00> 7318
01> -16265
00> 7279
01> -16200
00> 7274
01> -16137
00> 7362
01> -16134
00> 7357
01> -16104
00> 7374
01> -16072
00> 7391
01> -15980
00> 7363
01> -15933
00> 7406
01> -15914
00> 7472
01> -15903
00> 7457
01> -15864
00> 7464
01> -15834
00> 7458
01> -15795
00> 7483
01> -15804
00> 7483
01> -15830
00> 7483
01> -15791
00> 7459
01> -15761
00> 7490
01> -15751
00> 7495
01> -15756
00> 7488
01> -15752
00> 7495
01> -15778
00> 7474
01> -15765
00> 7459
01> -15799
00> 7480
01> -15836
00> 7460
01> -15896
00> 7458
01> -15895
00> 7429
01> -15894
00> 7426
01> -15880
00> 7429
01> -15887
00> 7439
01> -15944
00> 7397
01> -15974
00> 7393
01> -15968
00> 7383
01> -15958
00> 7411
01> -15975
00> 7393
01> -16047
00> 7403
01> -16067
00> 7378
01> -16058
00> 7353
01> -16071
00> 7382
01> -16067
00> 7391
01> -16067
00> 7369
01> -16096
00> 7334
01> -16097
00> 7319
01> -16122
00> 7314
01> -16139
00> 7381
01> -16128
00> 7379
01> -16141
00> 7346
01> -16175
00> 7294
01> -16185
00> 7321
01> -16190
00> 7374
01> -16191
00> 7361
01> -16201
00> 7329
01> -16211
00> 7301
01> -16212
00> 7321
01> -16201
00> 7326
01> -16215
00> 7338
01> -16224
00> 7288
01> -16233
00> 7279
01> -16246
00> 7306
01> -16248
00> 7353
01> -16257
00> 7308
01> -16304
00> 7275
01> -16292
00> 7289
01> -16277
00> 7273
01> -16281
00> 7274
01> -16306
00> 7252
01> -16314
00> 7268
01> -16341
00> 7261
01> -16349
00> 7276
01> -16363
00> 7293
01> -16351
00> 7227
01> -16384
00> 7224
01> -16351
00> 7279
01> -16337
00> 7294
01> -16354
00> 7293
01> -16352
00> 7259
01> -16351
00> 7269
01> -16340
00> 7271
01> -16327
00> 7258
01> -16356
00> 7256
01> -16386
00> 7226
01> -16393
00> 7244
01> -16350
00> 7257
01> -16339
00> 7313
01> -16359
00> 7316
01> -16365
00> 7273
01> -16388
00> 7216
01> -16368
00> 7237
01> -16373
00> 7263
01> -16367
00> 7284
01> -16387
00> 7258
01> -16376
00> 7224
01> -16375
00> 7256
01> -16350
00> 7297
01> -16368
00> 7291
01> -16394
00> 7236
01> -16376
00> 7204
01> -16357
00> 7252
01> -16349
00> 7248
01> -16367
00> 7253
01> -16369
00> 7297
01> -16405
00> 7273
01> -16390
00> 7254
01> -16381
00> 7239
01> -16385
00> 7266
01> -16407
00> 7279
01> -16407
00> 7230
01> -16391
00> 7221
01> -16398
00> 7244
01> -16386
00> 7276
01> -16383
00> 7247
01> -16414
00> 7223
01> -16416
00> 7226
01> -16357
00> 7269
01> -16379
00> 7281
01> -16411
00> 7239
01> -16423
00> 7211
01> -16390
00> 7211
01> -16397
00> 7271
01> -16417
00> 7270
01> -16426
00> 7221
01> -16436
00> 7233
01> -16395
00> 7233
01> -16391
00> 7216
01> -16401
00> 7248
01> -16402
00> 7273
01> -16415
00> 7231
01> -16383
00> 7221
01> -16362
00> 7253
01> -16409
00> 7284
01> -16443
00> 7249
01> -16438
00> 7216
01> -16416
00> 7228
01> -16390
00> 7262
01> -16395
00> 7277
01> -16417
00> 7243
01> -16407
00> 7216
01> -16406
00> 7235
01> -16411
00> 7268
01> -16392
00> 7259
01> -16421
00> 7248
01> -16462
00> 7236
01> -16439
00> 7236
01> -16412
00> 7256
01> -16399
00> 7254
01> -16417
00> 7255
01> -16432
00> 7253
01> -16422
00> 7219
01> -16404
00> 7208
01> -16392
00> 7253
01> -16434
00> 7261
01> -16449
00> 7224
01> -16432
00> 7221
01> -16408
00> 7243
01> -16398
00> 7252
01> -16416
00> 7221
01> -16444
00> 7236
01> -16439
00> 7232
01> -16406
00> 7223
01> -16391
00> 7209
01> -16384
00> 7253
01> -16409
00> 7243
01> -16397
00> 7227
01> -16385
00> 7273
01> -16365
00> 7281
01> -16378
00> 7295
01> -16365
00> 7279
01> -16345
00> 7241
01> -16334
00> 7286
01> -16317
00> 7346
01> -16279
00> 7324
01> -16241
00> 7263
01> -16203
00> 7274
01> -16144
00> 7368
01> -16087
00> 7416
01> -16061
00> 7391
01> -16039
00> 7386
01> -15967
00> 7406
01> -15884
00> 7407
01> -15850
00> 7405
01> -15846
00> 7466
01> -15787
00> 7440
01> -15738
00> 7432
01> -15726
00> 7438
01> -15736
00> 7406
01> -15721
00> 7436
01> -15711
00> 7406
01> -15722
00> 7383
01> -15722
00> 7358
01> -15723
00> 7356
01> -15755
00> 7399
01> -15746
00> 7368
01> -15758
00> 7335
01> -15791
00> 7318
01> -15826
00> 7326
01> -15878
00> 7271
01> -15912
00> 7279
01> -15922
00> 7268
01> -15937
00> 7259
01> -15946
00> 7253
01> -15953
00> 7255
01> -16001
00> 7226
01> -15977
00> 7204
01> -15971
00> 7231
01> -16028
00> 7274
01> -16052
00> 7214
01> -16048
00> 7186
01> -16079
00> 7184
01> -16097
00> 7177
01> -16098
00> 7202
01> -16112
00> 7230
01> -16121
00> 7199
01> -16134
00> 7159
01> -16119
00> 7174
01> -16111
00> 7210
01> -16129
00> 7201
01> -16150
00> 7173
01> -16161
00> 7163
01> -16132
00> 7163
01> -16111
00> 7223
01> -16122
00> 7199
01> -16131
00> 7200
01> -16104
00> 7190
01> -16074
00> 7229
01> -16042
00> 7263
01> -15983
00> 7257
01> -15961
00> 7234
01> -15957
00> 7251
01> -15942
00> 7276
01> -15880
00> 7319
01> -15866
00> 7329
01> -15834
00> 7296
01> -15789
00> 7296
01> -15741
00> 7341
01> -15731
00> 7348
01> -15706
00> 7391
01> -15682
00> 7368
01> -15634
00> 7358
01> -15657
00> 7385
01> -15650
00> 7433
01> -15645
00> 7391
01> -15680
00> 7351
01> -15658
00> 7367
01> -15656
00> 7379
01> -15678
00> 7361
01> -15729
00> 7339
01> -15776
00> 7325
01> -15770
00> 7313
01> -15758
00> 7289
01> -15779
00> 7341
01> -15829
00> 7338
01> -15867
00> 7306
01> -15859
00> 7278
01> -15835
00> 7296
01> -15889
00> 7293
01> -15920
00> 7259
01> -15976
00> 7268
01> -15961
00> 7303
01> -15935
00> 7286
01> -15964
00> 7313
01> -16007
00> 7306
01> -16050
00> 7256
01> -16044
00> 7221
01> -16029
00> 7256
01> -16056
00> 7274
01> -16066
00> 7218
01> -16113
00> 7234
01> -16111
00> 7252
01> -16097
00> 7241
01> -16111
00> 7221
01> -16164
00> 7245
01> -16164
00> 7219
01> -16172
00> 7190
01> -16154
00> 7180
01> -16176
00> 7213
01> -16221
00> 7219
01> -16206
00> 7191
01> -16250
00> 7189
01> -16240
00> 7198
01> -16227
00> 7199
01> -16251
00> 7201
01> -16289
00> 7154
01> -16291
00> 7149
01> -16291
00> 7176
01> -16301
00> 7206
01> -16322
00> 7204
01> -16324
00> 7153
01> -16329
00> 7119
01> -16339
00> 7153
01> -16343
00> 7186
01> -16361
00> 7165
01> -16370
00> 7158
01> -16359
00> 7146
01> -16343
00> 7128
01> -16364
00> 7140
01> -16386
00> 7153
01> -16392
00> 7131
01> -16379
00> 7120
01> -16378
00> 7151
01> -16366
00> 7138
01> -16406
00> 7143
01> -16394
00> 7143
01> -16378
00> 7123
01> -16392
00> 7146
01> -16418
00> 7171
01> -16418
00> 7136
01> -16431
00> 7111
01> -16421
00> 7108
01> -16413
00> 7104
01> -16418
00> 7106
01> -16428
00> 7116
01> -16415
00> 7111
01> -16431
00> 7117
01> -16438
00> 7148
01> -16442
00> 7153
01> -16457
00> 7143
01> -16472
00> 7104
01> -16463
00> 7093
01> -16444
00> 7123
01> -16418
00> 7148
01> -16419
00> 7106
01> -16456
00> 7090
01> -16482
00> 7104
01> -16441
00> 7133
01> -16423
00> 7128
01> -16441
00> 7149
01> -16467
00> 7123
01> -16451
00> 7123
01> -16412
00> 7124
01> -16437
00> 7127
01> -16479
00> 7133
01> -16486
00> 7098
01> -16457
00> 7084
01> -16447
00> 7123
01> -16468
00> 7169
01> -16459
00> 7139
01> -16471
00> 7093
01> -16466
00> 7111
01> -16422
00> 7154
01> -16416
00> 7155
01> -16477
00> 7134
01> -16506
00> 7109
01> -16467
00> 7114
01> -16434
00> 7111
01> -16426
00> 7124
01> -16464
00> 7136
01> -16479
00> 7162
01> -16442
00> 7109
01> -16449
00> 7123
01> -16454
00> 7123
01> -16478
00> 7140
01> -16471
00> 7150
01> -16447
00> 7134
01> -16429
00> 7138
01> -16416
00> 7169
01> -16428
00> 7173
01> -16439
00> 7154
01> -16381
00> 7140
01> -16336
00> 7171
01> -16383
00> 7189
01> -16405
00> 7187
01> -16372
00> 7211
01> -16342
00> 7167
01> -16316
00> 7194
01> -16277
00> 7228
01> -16232
00> 7221
01> -16218
00> 7213
01> -16109
00> 7226
01> -16061
00> 7304
01> -15990
00> 7346
01> -15947
00> 7374
01> -15904
00> 7334
01> -15834
00> 7351
01> -15752
00> 7408
01> -15702
00> 7444
01> -15702
00> 7460
01> -15678
00> 7452
01> -15631
00> 7428
01> -15624
00> 7405
01> -15626
00> 7434
01> -15637
00> 7435
01> -15633
00> 7433
01> -15660
00> 7409
01> -15624
00> 7399
01> -15669
00> 7414
01> -15717
00> 7388
01> -15751
00> 7382
01> -15742
00> 7365
01> -15752
00> 7358
01> -15775
00> 7363
01> -15802
00> 7362
01> -15841
00> 7357
01> -15834
00> 7338
01> -15844
00> 7355
01> -15856
00> 7356
01> -15877
00> 7311
01> -15934
00> 7295
01> -15926
00> 7323
01> -15902
00> 7321
01> -15919
00> 7322
01> -15997
00> 7308
01> -16042
00> 7276
01> -16032
00> 7252
01> -16034
00> 7268
01> -16017
00> 7320
01> -16041
00> 7298
01> -16091
00> 7268
01> -16106
00> 7265
01> -16096
00> 7255
01> -16097
00> 7280
01> -16116
00> 7277
01> -16154
00> 7208
01> -16197
00> 7161
01> -16174
00> 7238
01> -16182
00> 7236
01> -16207
00> 7249
01> -16251
00> 7233
01> -16246
00> 7220
01> -16230
00> 7211
01> -16221
00> 7214
01> -16229
00> 7204
01> -16267
00> 7186
01> -16296
00> 7163
01> -16299
00> 7201
01> -16275
00> 7194
01> -16311
00> 7200
01> -16351
00> 7203
01> -16329
00> 7166
01> -16322
00> 7177
01> -16322
00> 7194
01> -16347
00> 7182
01> -16367
00> 7141
01> -16328
00> 7177
01> -16316
00> 7193
01> -16339
00> 7208
01> -16356
00> 7198
01> -16369
00> 7169
01> -16378
00> 7104
01> -16369
00> 7143
01> -16353
00> 7189
01> -16362
00> 7161
01> -16399
00> 7123
01> -16376
00> 7144
01> -16366
00> 7170
01> -16374
00> 7180
01> -16394
00> 7180
01> -16417
00> 7153
01> -16392
00> 7116
01> -16391
00> 7130
01> -16389
00> 7165
01> -16410
00> 7143
01> -16442
00> 7095
01> -16439
00> 7136
01> -16397
00> 7173
01> -16389
00> 7181
01> -16377
00> 7183
01> -16404
00> 7138
01> -16424
00> 7151
01> -16419
00> 7149
01> -16426
00> 7119
01> -16454
00> 7164
01> -16462
00> 7151
01> -16478
00> 7131
01> -16461
00> 7151
01> -16398
00> 7168
01> -16449
00> 7168
01> -16505
00> 7147
01> -16509
00> 7126
01> -16483
00> 7139
01> -16467
00> 7153
01> -16459
00> 7163
01> -16466
00> 7134
01> -16462
00> 7081
01> -16486
00> 7161
01> -16474
00> 7153
01> -16473
00> 7129
01> -16501
00> 7164
01> -16514
00> 7146
01> -16505
00> 7113
01> -16499
00> 7176
01> -16471
00> 7179
01> -16496
00> 7148
01> -16489
00> 7118
01> -16460
00> 7112
01> -16451
00> 7148
01> -16489
00> 7161
01> -16499
00> 7143
01> -16517
00> 7123
01> -16485
00> 7121
01> -16494
00> 7176
01> -16500
00> 7188
01> -16507
00> 7162
01> -16486
00> 7122
01> -16477
00> 7122
01> -16482
00> 7138
01> -16504
00> 7143
01> -16514
00> 7105
01> -16499
00> 7135
01> -16456
00> 7143
01> -16472
00> 7149
01> -16505
00> 7144
01> -16509
00> 7155
01> -16506
00> 7109
01> -16519
00> 7079
01> -16522
00> 7158
01> -16490
00> 7168
01> -16526
00> 7124
01> -16534
00> 7092
01> -16529
00> 7078
01> -16511
00> 7141
01> -16521
00> 7157
01> -16516
00> 7141
01> -16486
00> 7132
01> -16517
00> 7129
01> -16512
00> 7138
01> -16527
00> 7163
01> -16529
00> 7114
01> -16509
00> 7130
01> -16516
00> 7119
01> -16516
00> 7153
01> -16515
00> 7163
01> -16508
00> 7103
01> -16517
00> 7086
01> -16500
00> 7139
01> -16507
00> 7149
01> -16505
00> 7158
01> -16514
00> 7141
01> -16544
00> 7105
01> -16534
00> 7119
01> -16511
00> 7136
01> -16499
00> 7168
01> -16504
00> 7149
01> -16504
00> 7110
01> -16490
00> 7127
01> -16489
00> 7161
01> -16486
00> 7164
01> -16473
00> 7137
01> -16463
00> 7166
01> -16431
00> 7167
01> -16422
00> 7219
01> -16432
00> 7233
01> -16410
00> 7222
01> -16376
00> 7193
01> -16332
00> 7198
01> -16309
00> 7253
01> -16267
00> 7280
01> -16247
00> 7283
01> -16191
00> 7272
01> -16134
00> 7279
01> -16098
00> 7330
01> -16052
00> 7370
01> -16024
00> 7348
01> -15974
00> 7309
01> -15933
00> 7348
01> -15867
00> 7415
01> -15834
00> 7414
01> -15847
00> 7391
01> -15817
00> 7364
01> -15798
00> 7339
01> -15817
00> 7374
01> -15840
00> 7400
01> -15871
00> 7361
01> -15873
00> 7334
01> -15888
00> 7314
01> -15909
00> 7323
01> -15937
00> 7331
01> -15971
00> 7294
01> -15984
00> 7269
01> -15982
00> 7251
01> -15997
00> 7288
01> -16032
00> 7280
01> -16083
00> 7293
01> -16058
00> 7282
01> -16056
00> 7258
01> -16084
00> 7286
01> -16084
00> 7291
01> -16126
00> 7263
01> -16139
00> 7228
01> -16158
00> 7213
01> -16132
00> 7274
01> -16155
00> 7290
01> -16168
00> 7264
01> -16189
00> 7219
01> -16201
00> 7229
01> -16189
00> 7250
01> -16209
00> 7276
01> -16241
00> 7264
01> -16253
00> 7215
01> -16251
00> 7182
01> -16277
00> 7194
01> -16296
00> 7210
01> -16311
00> 7174
01> -16330
00> 7171
01> -16337
00> 7155
01> -16310
00> 7182
01> -16347
00> 7275
01> -16374
00> 7219
01> -16369
00> 7158
01> -16365
00> 7160
01> -16341
00> 7180
01> -16358
00> 7184
01> -16350
00> 7166
01> -16401
00> 7139
01> -16389
00> 7148
01> -16401
00> 7158
01> -16416
00> 7163
01> -16411
00> 7113
01> -16441
00> 7068
01> -16437
00> 7088
01> -16443
00> 7184
01> -16417
00> 7175
01> -16418
00> 7148
01> -16414
00> 7114
01> -16396
00> 7160
01> -16380
00> 7168
01> -16381
00> 7151
01> -16427
00> 7181
01> -16404
00> 7164
01> -16395
00> 7148
01> -16380
00> 7198
01> -16385
00> 7196
01> -16394
00> 7191
01> -16380
00> 7158
01> -16374
00> 7183
01> -16354
00> 7191
01> -16386
00> 7208
01> -16407
00> 7208
01> -16405
00> 7167
01> -16396
00> 7162
01> -16376
00> 7197
01> -16368
00> 7178
01> -16387
00> 7204
01> -16411
00> 7149
01> -16400
00> 7135
01> -16362
00> 7159
01> -16392
00> 7175
01> -16419
00> 7173
01> -16419
00> 7153
01> -16400
00> 7135
01> -16414
00> 7166
01> -16431
00> 7166
01> -16450
00> 7144
01> -16449
00> 7135
01> -16425
00> 7124
01> -16421
00> 7143
01> -16417
00> 7174
01> -16437
00> 7141
01> -16450
00> 7100
01> -16447
00> 7141
01> -16406
00> 7215
01> -16411
00> 7226
01> -16434
00> 7209
01> -16452
00> 7150
01> -16435
00> 7109
01> -16392
00> 7183
01> -16366
00> 7257
01> -16387
00> 7243
01> -16331
00> 7228
01> -16290
00> 7151
01> -16239
00> 7236
01> -16195
00> 7293
01> -16197
00> 7274
01> -16181
00> 7280
01> -16134
00> 7298
01> -16051
00> 7291
01> -16009
00> 7327
01> -16011
00> 7363
01> -15998
00> 7363
01> -15905
00> 7386
01> -15837
00> 7414
01> -15826
00> 7440
01> -15810
00> 7434
01> -15791
00> 7428
01> -15798
00> 7408
01> -15797
00> 7429
01> -15807
00> 7404
01> -15845
00> 7456
01> -15857
00> 7459
01> -15827
00> 7420
01> -15847
00> 7403
01> -15896
00> 7399
01> -15942
00> 7373
01> -15971
00> 7367
01> -15957
00> 7346
01> -15984
00> 7357
01> -16037
00> 7356
01> -16063
00> 7356
01> -16066
00> 7299
01> -16064
00> 7322
01> -16041
00> 7333
01> -16059
00> 7337
01> -16089
00> 7299
01> -16101
00> 7316
01> -16117
00> 7297
01> -16114
00> 7293
01> -16094
00> 7328
01> -16143
00> 7314
01> -16156
00> 7309
01> -16145
00> 7290
01> -16133
00> 7313
01> -16139
00> 7317
01> -16154
00> 7302
01> -16174
00> 7288
01> -16154
00> 7294
01> -16107
00> 7298
01> -16092
00> 7331
01> -16101
00> 7334
01> -16080
00> 7319
01> -16027
00> 7343
01> -15949
00> 7334
01> -15931
00> 7384
01> -15936
00> 7411
01> -15881
00> 7402
01> -15826
00> 7384
01> -15767
00> 7368
01> -15764
00> 7476
01> -15724
00> 7457
01> -15724
00> 7451
01> -15686
00> 7419
01> -15645
00> 7471
01> -15645
00> 7502
01> -15656
00> 7475
01> -15634
00> 7432
01> -15599
00> 7453
01> -15621
00> 7484
01> -15631
00> 7492
01> -15657
00> 7463
01> -15672
00> 7464
01> -15667
00> 7443
01> -15672
00> 7451
01> -15689
00> 7418
01> -15717
00> 7441
01> -15772
00> 7401
01> -15796
00> 7401
01> -15797
00> 7428
01> -15809
00> 7424
01> -15859
00> 7400
01> -15882
00> 7383
01> -15910
00> 7326
01> -15910
00> 7338
01> -15931
00> 7379
01> -15956
00> 7365
01> -15969
00> 7353
01> -16008
00> 7320
01> -16012
00> 7287
01> -16043
00> 7318
01> -16075
00> 7320
01> -16094
00> 7271
01> -16108
00> 7273
01> -16111
00> 7298
01> -16129
00> 7298
01> -16179
00> 7279
01> -16175
00> 7240
01> -16171
00> 7248
01> -16144
00> 7265
01> -16187
00> 7263
01> -16237
00> 7261
01> -16244
00> 7233
01> -16239
00> 7249
01> -16212
00> 7273
01> -16202
00> 7260
01> -16236
00> 7264
01> -16241
00> 7246
01> -16211
00> 7239
01> -16203
00> 7243
01> -16198
00> 7299
01> -16196
00> 7336
01> -16162
00> 7307
01> -16123
00> 7287
01> -16049
00> 7332
01> -16010
00> 7349
01> -15993
00> 7354
01> -15962
00> 7360
01> -15899
00> 7351
01> -15817
00> 7419
01> -15784
00> 7467
01> -15758
00> 7471
01> -15743
00> 7456
01> -15686
00> 7461
01> -15638
00> 7471
01> -15631
00> 7508
01> -15633
00> 7503
01> -15636
00> 7468
01> -15634
00> 7466
01> -15617
00> 7476
01> -15637
00> 7509
01> -15686
00> 7458
01> -15718
00> 7441
01> -15714
00> 7425
01> -15741
00> 7404
01> -15781
00> 7422
01> -15826
00> 7408
01> -15882
00> 7346
01> -15880
00> 7350
01> -15901
00> 7375
01> -15940
00> 7373
01> -15971
00> 7355
01> -16011
00> 7341
01> -16019
00> 7321
01> -16031
00> 7311
01> -16057
00> 7315
01> -16097
00> 7304
01> -16127
00> 7249
01> -16132
00> 7271
01> -16130
00> 7293
01> -16136
00> 7311
01> -16180
00> 7289
01> -16205
00> 7246
01> -16221
00> 7248
01> -16215
00> 7263
01> -16199
00> 7278
01> -16245
00> 7264
01> -16271
00> 7241
01> -16270
00> 7227
01> -16286
00> 7251
01> -16279
00> 7249
01> -16288
00> 7238
01> -16315
00> 7216
01> -16334
00> 7207
01> -16310
00> 7210
01> -16332
00> 7204
01> -16377
00> 7210
01> -16368
00> 7219
01> -16357
00> 7193
01> -16372
00> 7199
01> -16409
00> 7243
01> -16419
00> 7224
01> -16436
00> 7198
01> -16412
00> 7178
01> -16397
00> 7208
01> -16411
00> 7204
01> -16414
00> 7214
01> -16436
00> 7202
01> -16412
00> 7223
01> -16418
00> 7216
01> -16418
00> 7208
01> -16436
00> 7203
01> -16442
00> 7190
01> -16441
00> 7204
01> -16426
00> 7210
01> -16416
00> 7211
01> -16467
00> 7198
01> -16479
00> 7172
01> -16464
00> 7158
01> -16449
00> 7219
01> -16429
00> 7248
01> -16455
00> 7231
01> -16470
00> 7212
01> -16456
00> 7226
01> -16421
00> 7228
01> -16397
00> 7236
01> -16459
00> 7236
01> -16474
00> 7197
01> -16456
00> 7158
01> -16464
00> 7143
01> -16499
00> 7173
01> -16527
00> 7154
01> -16591
00> 7129
01> -16603
00> 7179
01> -16583
00> 7161
01> -16609
00> 7146
01> -16651
00> 7140
01> -16676
00> 7117
01> -16707
00> 7116
01> -16707
00> 7133
01> -16701
00> 7089
01> -16745
00> 7129
01> -16767
00> 7118
01> -16744
00> 7104
01> -16718
00> 7124
01> -16709
00> 7160
01> -16724
00> 7162
01> -16742
00> 7103
01> -16746
00> 7104
01> -16702
00> 7157
01> -16704
00> 7171
01> -16706
00> 7171
01> -16741
00> 7107
01> -16720
00> 7089
01> -16696
00> 7134
01> -16679
00> 7163
01> -16694
00> 7150
01> -16711
00> 7116
01> -16698
00> 7114
01> -16671
00> 7124
01> -16671
00> 7162
01> -16696
00> 7166
01> -16713
00> 7113
01> -16726
00> 7087
01> -16706
00> 7119
01> -16661
00> 7174
01> -16673
00> 7120
01> -16688
00> 7141
01> -16690
00> 7151
01> -16644
00> 7150
01> -16641
00> 7165
01> -16637
00> 7176
01> -16679
00> 7160
01> -16666
00> 7120
01> -16627
00> 7108
01> -16619
00> 7178
01> -16645
00> 7193
01> -16636
00> 7166
01> -16643
00> 7132
01> -16613
00> 7129
01> -16611
00> 7166
01> -16670
00> 7197
01> -16667
00> 7156
01> -16637
00> 7122
01> -16639
00> 7128
01> -16622
00> 7148
01> -16619
00> 7173
01> -16649
00> 7169
01> -16652
00> 7126
01> -16633
00> 7134
01> -16616
00> 7199
01> -16611
00> 7154
01> -16642
00> 7141
01> -16675
00> 7119
01> -16661
00> 7148
01> -16677
00> 7159
01> -16706
00> 7161
01> -16731
00> 7112
01> -16776
00> 7083
01> -16791
00> 7086
01> -16804
00> 7091
01> -16816
00> 7093
01> -16846
00> 7044
01> -16864
00> 7033
01> -16865
00> 7078
01> -16866
00> 7080
01> -16852
00> 7083
01> -16874
00> 7030
01> -16879
00> 7056
01> -16853
00> 7069
01> -16861
00> 7084
01> -16892
00> 7075
01> -16912
00> 7050
01> -16895
00> 7051
01> -16884
00> 7041
01> -16880
00> 7079
01> -16894
00> 7091
01> -16883
00> 7061
01> -16877
00> 7040
01> -16911
00> 7078
01> -16898
00> 7098
01> -16898
00> 7104
01> -16901
00> 7084
01> -16887
00> 7071
01> -16894
00> 7053
01> -16880
00> 7068
01> -16860
00> 7080
01> -16891
00> 7074
01> -16896
00> 7056
01> -16847
00> 7066
01> -16840
00> 7103
01> -16847
00> 7109
01> -16842
00> 7071
01> -16844
00> 7058
01> -16841
00> 7099
01> -16813
00> 7134
01> -16817
00> 7140
01> -16832
00> 7088
01> -16839
00> 7074
01> -16807
00> 7091
01> -16770
00> 7106
01> -16760
00> 7107
01> -16761
00> 7114
01> -16708
00> 7088
01> -16723
00> 7091
01> -16708
00> 7126
01> -16709
00> 7123
01> -16725
00> 7087
01> -16707
00> 7101
01> -16686
00> 7116
01> -16675
00> 7126
01> -16688
00> 7129
01> -16696
00> 7088
01> -16701
00> 7063
01> -16693
00> 7079
01> -16681
00> 7102
01> -16701
00> 7123
01> -16716
00> 7114
01> -16686
00> 7059
01> -16687
00> 7086
01> -16654
00> 7129
01> -16668
00> 7125
01> -16711
00> 7139
01> -16682
00> 7103
01> -16672
00> 7096
01> -16672
00> 7096
01> -16682
00> 7108
01> -16696
00> 7111
01> -16681
00> 7095
01> -16666
00> 7108
01> -16657
00> 7116
01> -16704
00> 7133
01> -16716
00> 7124
01> -16689
00> 7093
01> -16664
00> 7108
01> -16672
00> 7113
01> -16695
00> 7123
01> -16712
00> 7096
01> -16691
00> 7069
01> -16648
00> 7096
01> -16679
00> 7146
01> -16653
00> 7164
01> -16667
00> 7123
01> -16678
00> 7101
01> -16662
00> 7128
01> -16619
00> 7128
01> -16647
00> 7138
01> -16672
00> 7133
01> -16647
00> 7114
01> -16661
00> 7081
01> -16645
00> 7118
01> -16669
00> 7139
01> -16676
00> 7104
01> -16657
00> 7091
01> -16653
00> 7106
01> -16659
00> 7128
01> -16677
00> 7123
01> -16692
00> 7148
01> -16637
00> 7150
01> -16597
00> 7140
01> -16576
00> 7194
01> -16527
00> 7191
01> -16499
00> 7159
01> -16449
00> 7193
01> -16379
00> 7213
01> -16327
00> 7218
01> -16278
00> 7279
01> -16228
00> 7304
01> -16154
00> 7304
01> -16060
00> 7336
01> -16016
00> 7382
01> -16003
00> 7388
01> -15967
00> 7374
01> -15928
00> 7366
01> -15889
00> 7376
01> -15846
00> 7411
01> -15857
00> 7428
01> -15864
00> 7420
01> -15836
00> 7391
01> -15804
00> 7379
01> -15796
00> 7410
01> -15800
00> 7404
01> -15830
00> 7367
01> -15837
00> 7339
01> -15831
00> 7370
01> -15817
00> 7395
01> -15832
00> 7394
01> -15833
00> 7387
01> -15852
00> 7359
01> -15839
00> 7378
01> -15835
00> 7379
01> -15842
00> 7383
01> -15872
00> 7372
01> -15871
00> 7349
01> -15869
00> 7336
01> -15884
00> 7357
01> -15909
00> 7354
01> -15921
00> 7330
01> -15923
00> 7309
01> -15925
00> 7319
01> -15941
00> 7343
01> -15972
00> 7342
01> -16000
00> 7321
01> -16015
00> 7299
01> -16021
00> 7291
01> -16028
00> 7299
01> -16057
00> 7322
01> -16079
00> 7289
01> -16102
00> 7248
01> -16115
00> 7248
01> -16134
00> 7267
01> -16161
00> 7273
01> -16191
00> 7254
01> -16200
00> 7221
01> -16187
00> 7241
01> -16221
00> 7259
01> -16232
00> 7263
01> -16260
00> 7238
01> -16264
00> 7203
01> -16262
00> 7217
01> -16253
00> 7253
01> -16266
00> 7265
01> -16283
00> 7242
01> -16287
00> 7214
01> -16283
00> 7218
01> -16286
00> 7239
01> -16294
00> 7248
01> -16305
00> 7223
01> -16319
00> 7219
01> -16316
00> 7226
01> -16312
00> 7243
01> -16341
00> 7255
01> -16358
00> 7234
01> -16360
00> 7201
01> -16357
00> 7211
01> -16355
00> 7236
01> -16359
00> 7245
01> -16377
00> 7218
01> -16388
00> 7221
01> -16362
00> 7236
01> -16351
00> 7234
01> -16371
00> 7250
01> -16388
00> 7234
01> -16384
00> 7217
01> -16369
00> 7221
01> -16364
00> 7246
01> -16374
00> 7262
01> -16389
00> 7249
01> -16382
00> 7228
01> -16381
00> 7224
01> -16378
00> 7244
01> -16388
00> 7259
01> -16407
00> 7252
01> -16411
00> 7239
01> -16396
00> 7231
01> -16398
00> 7240
01> -16412
00> 7256
01> -16423
00> 7234
01> -16431
00> 7226
01> -16409
00> 7234
01> -16410
00> 7244
01> -16422
00> 7253
01> -16435
00> 7244
01> -16442
00> 7225
01> -16424
00> 7231
01> -16424
00> 7255
01> -16438
00> 7266
01> -16455
00> 7241
01> -16454
00> 7219
01> -16451
00> 7217
01> -16429
00> 7231
01> -16435
00> 7244
01> -16444
00> 7238
01> -16439
00> 7203
01> -16432
00> 7201
01> -16420
00> 7219
01> -16443
00> 7240
01> -16450
00> 7221
01> -16444
00> 7181
01> -16437
00> 7181
01> -16424
00> 7206
01> -16430
00> 7211
01> -16449
00> 7199
01> -16449
00> 7174
01> -16437
00> 7181
01> -16429
00> 7203
01> -16433
00> 7201
01> -16452
00> 7193
01> -16460
00> 7170
01> -16461
00> 7163
01> -16450
00> 7179
01> -16456
00> 7191
01> -16476
00> 7189
01> -16474
00> 7174
01> -16459
00> 7173
01> -16458
00> 7192
01> -16470
00> 7199
01> -16476
00> 7181
01> -16466
00> 7158
01> -16460
00> 7158
01> -16450
00> 7179
01> -16455
00> 7196
01> -16471
00> 7189
01> -16481
00> 7162
01> -16472
00> 7157
01> -16472
00> 7173
01> -16487
00> 7184
01> -16507
00> 7166
01> -16517
00> 7129
01> -16509
00> 7119
01> -16504
00> 7143
01> -16504
00> 7161
01> -16517
00> 7156
01> -16524
00> 7138
01> -16518
00> 7131
01> -16515
00> 7145
01> -16533
00> 7157
01> -16551
00> 7143
01> -16562
00> 7122
01> -16549
00> 7127
01> -16538
00> 7155
01> -16548
00> 7169
01> -16574
00> 7159
01> -16580
00> 7138
01> -16567
00> 7131
01> -16557
00> 7138
01> -16559
00> 7152
01> -16583
00> 7138
01> -16595
00> 7107
01> -16587
00> 7114
01> -16571
00> 7129
01> -16577
00> 7146
01> -16584
00> 7141
01> -16591
00> 7106
01> -16578
00> 7106
01> -16581
00> 7130
