# SEGGER J-Link RTT Viewer V6.62 Terminal Log File
# Compiled: 16:34:01 on Jan 24 2020
# Logging started @ 20 Jun 2024 16:32:05

00> 3245
01> -17875
00> 3259
01> -17872
00> 3273
01> -17898
00> 3264
01> -17927
00> 3249
01> -17933
00> 3242
01> -17916
00> 3259
01> -17907
00> 3285
01> -17918
00> 3289
01> -17917
00> 3274
01> -17899
00> 3239
01> -17896
00> 3240
01> -17901
00> 3263
01> -17919
00> 3269
01> -17938
00> 3249
01> -17929
00> 3240
01> -17889
00> 3259
01> -17876
00> 3282
01> -17900
00> 3296
01> -17914
00> 3249
01> -17912
00> 3221
01> -17888
00> 3244
01> -17879
00> 3276
01> -17894
00> 3276
01> -17917
00> 3254
01> -17910
00> 3255
01> -17894
00> 3256
01> -17896
00> 3268
01> -17907
00> 3273
01> -17916
00> 3256
01> -17909
00> 3250
01> -17886
00> 3266
01> -17869
00> 3294
01> -17875
00> 3292
01> -17899
00> 3271
01> -17901
00> 3245
01> -17902
00> 3250
01> -17893
00> 3278
01> -17894
00> 3288
01> -17899
00> 3263
01> -17893
00> 3243
01> -17872
00> 3248
01> -17867
00> 3278
01> -17889
00> 3294
01> -17892
00> 3280
01> -17864
00> 3239
01> -17846
00> 3240
01> -17851
00> 3266
01> -17875
00> 3274
01> -17896
00> 3256
01> -17897
00> 3246
01> -17884
00> 3266
01> -17877
00> 3295
01> -17894
00> 3283
01> -17911
00> 3259
01> -17902
00> 3234
01> -17872
00> 3235
01> -17862
00> 3268
01> -17878
00> 3281
01> -17894
00> 3266
01> -17889
00> 3246
01> -17885
00> 3251
01> -17884
00> 3269
01> -17895
00> 3276
01> -17897
00> 3264
01> -17889
00> 3248
01> -17876
00> 3263
01> -17859
00> 3281
01> -17873
00> 3267
01> -17911
00> 3233
01> -17917
00> 3221
01> -17885
00> 3240
01> -17865
00> 3269
01> -17876
00> 3283
01> -17894
00> 3273
01> -17892
00> 3256
01> -17876
00> 3257
01> -17874
00> 3283
01> -17898
00> 3295
01> -17914
00> 3278
01> -17907
00> 3253
01> -17884
00> 3261
01> -17876
00> 3291
01> -17894
00> 3305
01> -17912
00> 3286
00> 
01> -17899
00> 3270
01> -17870
00> 3266
01> -17867
00> 3273
01> -17896
00> 3276
01> -17904
00> 3268
01> -17891
00> 3259
01> -17871
00> 3272
01> -17867
00> 3289
01> -17892
00> 3288
01> -17911
00> 3267
01> -17904
00> 3248
01> -17879
00> 3244
01> -17879
00> 3268
01> -17894
00> 3281
01> -17906
00> 3276
01> -17895
00> 3262
01> -17875
00> 3253
01> -17878
00> 3272
01> -17902
00> 3285
01> -17920
00> 3280
01> -17903
00> 3264
01> -17874
00> 3241
01> -17877
00> 3259
01> -17897
00> 3276
01> -17920
00> 3244
01> -17923
00> 3220
01> -17903
00> 3233
01> -17900
00> 3264
01> -17909
00> 3273
01> -17921
00> 3242
01> -17924
00> 3211
01> -17909
00> 3232
01> -17899
00> 3265
01> -17914
00> 3255
01> -17937
00> 3229
01> -17936
00> 3213
01> -17917
00> 3218
01> -17904
00> 3242
01> -17919
00> 3259
01> -17937
00> 3259
01> -17924
00> 3224
01> -17913
00> 3206
01> -17926
00> 3231
01> -17939
00> 3248
01> -17946
00> 3241
01> -17936
00> 3234
01> -17907
00> 3245
01> -17896
00> 3244
01> -17924
00> 3248
01> -17951
00> 3238
01> -17941
00> 3226
01> -17910
00> 3232
01> -17895
00> 3250
01> -17912
00> 3237
01> -17942
00> 3208
01> -17940
00> 3189
01> -17924
00> 3209
01> -17916
00> 3248
01> -17920
00> 3260
01> -17931
00> 3246
01> -17917
00> 3215
01> -17903
00> 3228
01> -17899
00> 3255
01> -17917
00> 3258
01> -17940
00> 3241
01> -17926
00> 3233
01> -17895
00> 3251
01> -17875
00> 3270
01> -17887
00> 3278
01> -17910
00> 3247
01> -17917
00> 3220
01> -17906
00> 3224
01> -17907
00> 3259
01> -17928
00> 3279
01> -17949
00> 3253
01> -17938
00> 3227
01> -17912
00> 3246
01> -17892
00> 3262
01> -17901
00> 3262
01> -17913
00> 3248
01> -17913
00> 3239
01> -17900
00> 3244
01> -17894
00> 3281
01> -17901
00> 3299
01> -17914
00> 3273
01> -17914
00> 3237
01> -17901
00> 3234
01> -17894
00> 3258
01> -17910
00> 3258
01> -17937
00> 3248
01> -17930
00> 3238
01> -17899
00> 3254
01> -17885
00> 3252
01> -17926
00> 3243
01> -17957
00> 3227
01> -17951
00> 3216
01> -17919
00> 3234
01> -17905
00> 3259
01> -17931
00> 3262
01> -17959
00> 3232
01> -17972
00> 3207
01> -17957
00> 3214
01> -17956
00> 3216
01> -17991
00> 3208
01> -18026
00> 3199
01> -18024
00> 3199
01> -17997
00> 3208
01> -17994
00> 3236
01> -18012
00> 3238
01> -18021
00> 3221
01> -18002
00> 3200
01> -17984
00> 3201
01> -17984
00> 3221
01> -17999
00> 3236
01> -18004
00> 3226
01> -18001
00> 3214
01> -17984
00> 3219
01> -17977
00> 3235
01> -17993
00> 3236
01> -18020
00> 3219
01> -18018
00> 3194
01> -18001
00> 3196
01> -17994
00> 3219
01> -18013
00> 3223
01> -18032
00> 3213
01> -18022
00> 3205
01> -17999
00> 3209
01> -17987
00> 3221
01> -18000
00> 3224
01> -18026
00> 3216
01> -18027
00> 3201
01> -18008
00> 3208
01> -17994
00> 3237
01> -18005
00> 3245
01> -18029
00> 3222
01> -18031
00> 3214
01> -17997
00> 3216
01> -17992
00> 3233
01> -18014
00> 3243
01> -18032
00> 3224
01> -18025
00> 3213
01> -17986
00> 3208
01> -17975
00> 3222
00> 3470
01> -17280
00> 3487
01> -17299
00> 3490
01> -17309
00> 3467
01> -17297
00> 3456
01> -17277
00> 3464
01> -17284
00> 3477
01> -17310
00> 3479
01> -17317
00> 3471
01> -17301
00> 3459
01> -17278
00> 3461
01> -17270
00> 3483
01> -17286
00> 3489
01> -17303
00> 3466
01> -17301
00> 3453
01> -17287
00> 3459
01> -17284
00> 3479
01> -17299
00> 3489
01> -17308
00> 3473
01> -17291
00> 3449
01> -17270
00> 3456
01> -17271
00> 3484
01> -17290
00> 3494
01> -17306
00> 3471
01> -17293
00> 3460
01> -17270
00> 3475
01> -17271
00> 3489
01> -17297
00> 3499
01> -17316
00> 3480
01> -17316
00> 3459
01> -17294
00> 3469
01> -17284
00> 3491
01> -17296
00> 3494
01> -17312
00> 3473
01> -17303
00> 3459
01> -17282
00> 3469
01> -17286
00> 3486
01> -17309
00> 3483
01> -17331
00> 3468
01> -17317
00> 3460
01> -17291
00> 3467
01> -17277
00> 3486
01> -17291
00> 3493
01> -17307
00> 3474
01> -17301
00> 3468
01> -17282
00> 3473
01> -17282
00> 3490
01> -17299
00> 3491
01> -17307
00> 3477
01> -17308
00> 3461
01> -17309
00> 3476
01> -17298
00> 3501
01> -17299
00> 3496
01> -17308
00> 3473
01> -17306
00> 3459
01> -17296
00> 3472
01> -17295
00> 3495
01> -17306
00> 3496
01> -17323
00> 3476
01> -17319
00> 3463
01> -17299
00> 3473
01> -17291
00> 3490
01> -17312
00> 3491
01> -17335
00> 3480
01> -17319
00> 3468
01> -17295
00> 3473
01> -17292
00> 3498
01> -17306
00> 3504
01> -17314
00> 3488
01> -17306
00> 3467
01> -17291
00> 3474
01> -17279
00> 3489
01> -17302
00> 3491
01> -17327
00> 3478
01> -17315
00> 3461
01> -17297
00> 3467
01> -17295
00> 3483
01> -17322
00> 3491
01> -17338
00> 3480
01> -17326
00> 3463
01> -17302
00> 3468
01> -17294
00> 3483
01> -17304
00> 3494
01> -17324
00> 3477
01> -17324
00> 3460
01> -17304
00> 3463
01> -17297
00> 3484
01> -17318
00> 3489
01> -17338
00> 3471
01> -17330
00> 3453
01> -17304
00> 3462
01> -17285
00> 3486
01> -17291
00> 3493
01> -17312
00> 3476
01> -17309
00> 3461
01> -17296
00> 3472
01> -17289
00> 3486
01> -17305
00> 3492
01> -17312
00> 3473
01> -17303
00> 3456
01> -17288
00> 3466
01> -17279
00> 3491
01> -17304
00> 3494
01> -17329
00> 3467
01> -17321
00> 3449
01> -17298
00> 3455
01> -17291
00> 3476
01> -17306
00> 3486
01> -17326
00> 3464
01> -17321
00> 3449
01> -17296
00> 3463
01> -17286
00> 3483
01> -17309
00> 3479
01> -17336
00> 3451
01> -17329
00> 3434
01> -17304
00> 3443
01> -17295
00> 3459
01> -17312
00> 3458
01> -17332
00> 3436
01> -17318
00> 3420
01> -17291
00> 3428
01> -17280
00> 3443
01> -17293
00> 3445
01> -17312
00> 3423
01> -17315
00> 3405
01> -17304
00> 3406
01> -17299
00> 3423
01> -17317
00> 3428
01> -17337
00> 3418
01> -17330
00> 3404
01> -17311
00> 3411
01> -17302
00> 3429
01> -17312
00> 3432
01> -17331
00> 3417
01> -17324
00> 3404
01> -17307
00> 3415
01> -17307
00> 3436
01> -17326
00> 3440
01> -17337
00> 3424
01> -17326
00> 3409
01> -17306
00> 3421
01> -17304
00> 3434
01> -17326
00> 3432
01> -17344
00> 3417
01> -17343
00> 3398
01> -17318
00> 3404
01> -17307
00> 3427
01> -17319
00> 3433
01> -17344
00> 3414
01> -17347
00> 3402
01> -17322
00> 3406
01> -17309
00> 3419
01> -17321
00> 3428
01> -17339
00> 3423
01> -17338
00> 3405
01> -17318
00> 3408
01> -17307
00> 3431
01> -17326
00> 3436
01> -17341
00> 3418
01> -17330
00> 3404
01> -17316
00> 3409
01> -17312
00> 3433
01> -17324
00> 3446
01> -17338
00> 3428
01> -17339
00> 3409
01> -17323
00> 3412
01> -17315
00> 3433
01> -17328
00> 3438
01> -17345
00> 3423
01> -17336
00> 3407
01> -17310
00> 3411
01> -17301
00> 3428
01> -17325
00> 3436
01> -17349
00> 3425
01> -17352
00> 3406
01> -17329
00> 3409
01> -17314
00> 3434
01> -17318
00> 3443
01> -17335
00> 3426
01> -17338
00> 3404
01> -17327
00> 3409
01> -17316
00> 3424
01> -17333
00> 3436
01> -17347
00> 3428
01> -17335
00> 3418
01> -17317
00> 3424
01> -17314
00> 3436
01> -17328
00> 3447
01> -17347
00> 3442
01> -17341
00> 3429
01> -17318
00> 3436
01> -17314
00> 3454
01> -17344
00> 3458
01> -17367
00> 3444
01> -17362
00> 3423
01> -17346
00> 3434
01> -17336
00> 3455
01> -17351
00> 3459
01> -17365
00> 3441
01> -17369
00> 3430
01> -17353
00> 3434
01> -17345
00> 3452
01> -17354
00> 3458
01> -17367
00> 3448
01> -17357
00> 3429
01> -17337
00> 3434
01> -17329
00> 3453
01> -17350
00> 3462
01> -17373
00> 3446
01> -17378
00> 3431
01> -17359
00> 3434
01> -17344
00> 3451
01> -17351
00> 3463
01> -17366
00> 3451
01> -17362
00> 3439
01> -17341
00> 3441
01> -17334
00> 3458
01> -17343
00> 3463
01> -17363
00> 3444
01> -17362
00> 3427
01> -17341
00> 3441
01> -17329
00> 3459
01> -17353
00> 3464
01> -17386
00> 3443
01> -17381
00> 3422
01> -17352
00> 3429
01> -17336
00> 3453
01> -17348
00> 3462
01> -17374
00> 3449
01> -17372
00> 3438
01> -17354
00> 3446
01> -17347
00> 3463
01> -17367
00> 3469
01> -17382
00> 3450
01> -17375
00> 3433
01> -17347
00> 3434
01> -17344
00> 3458
01> -17354
00> 3469
01> -17376
00> 3456
01> -17381
00> 3444
01> -17358
00> 3444
01> -17348
00> 3460
01> -17366
00> 3467
01> -17392
00> 3451
01> -17394
00> 3432
01> -17369
00> 3435
01> -17358
00> 3454
01> -17369
00> 3469
01> -17392
00> 3456
01> -17396
00> 3448
01> -17372
00> 3451
01> -17351
00> 3467
01> -17355
00> 3471
01> -17366
00> 3463
01> -17366
00> 3446
01> -17358
00> 3446
01> -17347
00> 3462
01> -17347
00> 3473
01> -17356
00> 3461
01> -17356
00> 3448
01> -17341
00> 3452
01> -17332
00> 3464
01> -17351
00> 3469
01> -17376
00> 3456
01> -17374
00> 3443
01> -17349
00> 3439
01> -17341
00> 3457
01> -17356
00> 3469
01> -17381
00> 3456
01> -17390
00> 3444
01> -17366
00> 3454
01> -17351
00> 3469

00> 3475
01> -17388
00> 3466
01> -17379
00> 3453
01> -17359
00> 3452
01> -17346
00> 3467
01> -17356
00> 3478
01> -17372
00> 3465
01> -17373
00> 3443
01> -17359
00> 3443
01> -17345
00> 3462
01> -17359
00> 3473
01> -17377
00> 3457
01> -17373
00> 3439
01> -17356
00> 3439
01> -17332
00> 3458
01> -17338
00> 3473
01> -17356
00> 3459
01> -17360
00> 3444
01> -17345
00> 3451
01> -17329
00> 3465
01> -17339
00> 3474
01> -17367
00> 3461
01> -17377
00> 3443
01> -17359
00> 3441
01> -17343
00> 3464
01> -17351
00> 3475
01> -17376
00> 3459
01> -17376
00> 3448
01> -17351
00> 3451
01> -17347
00> 3468
01> -17357
00> 3474
01> -17367
00> 3459
01> -17362
00> 3444
01> -17342
00> 3450
01> -17328
00> 3464
01> -17341
00> 3476
01> -17358
00> 3466
01> -17362
00> 3443
01> -17349
00> 3444
01> -17341
00> 3461
01> -17356
00> 3480
01> -17373
00> 3468
01> -17379
00> 3446
01> -17369
00> 3446
01> -17356
00> 3459
01> -17369
00> 3477
01> -17391
00> 3464
01> -17397
00> 3449
01> -17369
00> 3448
01> -17347
00> 3456
01> -17357
00> 3469
01> -17374
00> 3462
01> -17383
00> 3441
01> -17377
00> 3436
01> -17358
00> 3451
01> -17357
00> 3473
01> -17373
00> 3469
01> -17381
00> 3446
01> -17371
00> 3444
01> -17343
00> 3459
01> -17354
00> 3465
01> -17387
00> 3462
01> -17384
00> 3445
01> -17369
00> 3443
01> -17359
00> 3463
01> -17367
00> 3466
01> -17384
00> 3464
01> -17388
00> 3449
01> -17379
00> 3454
01> -17362
00> 3474
01> -17364
00> 3479
01> -17385
00> 3462
01> -17391
00> 3450
01> -17382
00> 3445
01> -17379
00> 3454
01> -17384
00> 3474
01> -17402
00> 3474
01> -17402
00> 3451
01> -17388
00> 3440
01> -17373
00> 3460
01> -17379
00> 3469
01> -17400
00> 3466
01> -17404
00> 3449
01> -17382
00> 3449
01> -17360
00> 3478
01> -17367
00> 3489
01> -17386
00> 3478
01> -17380
00> 3483
01> -17349
00> 3494
01> -17320
00> 3503
01> -17337
00> 3531
01> -17347
00> 3536
01> -17317
00> 3491
01> -17286
00> 3500
01> -17251
00> 3550
01> -17210
00> 3586
01> -17191
00> 3555
01> -17171
00> 3545
01> -17096
00> 3585
01> -16990
00> 3634
01> -16917
00> 3682
01> -16855
00> 3699
01> -16776
00> 3705
01> -16669
00> 3739
01> -16580
00> 3779
01> -16534
00> 3811
01> -16510
00> 3811
01> -16476
00> 3798
01> -16424
00> 3806
01> -16383
00> 3820
01> -16385
00> 3829
01> -16408
00> 3820
01> -16410
00> 3802
01> -16407
00> 3790
01> -16412
00> 3797
01> -16442
00> 3804
01> -16482
00> 3778
01> -16497
00> 3758
01> -16491
00> 3755
01> -16489
00> 3763
01> -16519
00> 3757
01> -16563
00> 3738
01> -16590
00> 3703
01> -16595
00> 3691
01> -16594
00> 3713
01> -16612
00> 3727
01> -16649
00> 3706
01> -16682
00> 3683
01> -16686
00> 3681
01> -16694
00> 3681
01> -16715
00> 3693
01> -16749
00> 3687
01> -16784
00> 3658
01> -16797
00> 3638
01> -16806
00> 3646
01> -16816
00> 3658
01> -16860
00> 3649
01> -16894
00> 3614
01> -16889
00> 3609
01> -16885
00> 3618
01> -16921
00> 3628
01> -16971
00> 3614
01> -16998
00> 3581
01> -17004
00> 3567
01> -17005
00> 3580
01> -17027
00> 3588
01> -17036
00> 3573
01> -17067
00> 3568
01> -17084
00> 3556
01> -17074
00> 3543
01> -17106
00> 3576
01> -17119
00> 3575
01> -17142
00> 3542
01> -17142
00> 3524
01> -17136
00> 3553
01> -17162
00> 3558
01> -17185
00> 3552
01> -17199
00> 3535
01> -17200
00> 3528
01> -17187
00> 3555
01> -17195
00> 3569
01> -17221
00> 3514
01> -17225
00> 3503
01> -17227
00> 3493
01> -17185
00> 3511
01> -17234
00> 3553
01> -17277
00> 3548
01> -17264
00> 3513
01> -17254
00> 3503
01> -17257
00> 3513
01> -17266
00> 3521
01> -17290
00> 3514
01> -17286
00> 3510
01> -17264
00> 3493
01> -17236
00> 3516
01> -17246
00> 3539
01> -17283
00> 3491
01> -17293
00> 3524
01> -17277
00> 3520
01> -17279
00> 3524
01> -17268
00> 3528
01> -17267
00> 3538
01> -17296
00> 3522
01> -17291
00> 3473
01> -17260
00> 3527
01> -17277
00> 3559
01> -17277
00> 3528
01> -17288
00> 3511
01> -17289
00> 3498
01> -17283
00> 3519
01> -17266
00> 3553
01> -17291
00> 3554
01> -17299
00> 3519
01> -17286
00> 3468
01> -17274
00> 3519
01> -17274
00> 3550
01> -17289
00> 3542
01> -17309
00> 3508
01> -17310
00> 3506
01> -17278
00> 3522
01> -17277
00> 3524
01> -17316
00> 3533
01> -17298
00> 3505
01> -17289
00> 3508
01> -17267
00> 3522
01> -17262
00> 3538
01> -17302
00> 3501
01> -17301
00> 3474
01> -17321
00> 3506
01> -17292
00> 3519
01> -17299
00> 3530
01> -17309
00> 3526
01> -17321
00> 3523
01> -17303
00> 3487
01> -17278
00> 3479
01> -17272
00> 3526
01> -17317
00> 3529
01> -17308
00> 3501
01> -17282
00> 3493
01> -17281
00> 3470
01> -17308
00> 3513
01> -17336
00> 3533
01> -17348
00> 3496
01> -17342
00> 3476
01> -17331
00> 3502
01> -17317
00> 3525
01> -17322
00> 3506
01> -17327
00> 3469
01> -17304
00> 3488
01> -17302
00> 3491
01> -17331
00> 3512
01> -17362
00> 3506
01> -17371
00> 3461
01> -17393
00> 3403
01> -17398
00> 3436
01> -17395
00> 3468
01> -17447
00> 3453
01> -17474
00> 3415
01> -17444
00> 3408
01> -17467
00> 3408
01> -17496
00> 3416
01> -17505
00> 3406
01> -17541
00> 3377
01> -17541
00> 3396
01> -17489
00> 3390
01> -17492
00> 3428
01> -17549
00> 3433
01> -17554
00> 3388
01> -17533
00> 3378
01> -17502
00> 3394
01> -17521
00> 3399
01> -17553
00> 3426
01> -17581
00> 3408
01> -17539
00> 3386
01> -17511
00> 3395
01> -17502
00> 3438
01> -17515
00> 3429
01> -17526
00> 3386
01> -17521
00> 3389
01> -17498
00> 3399
01> -17471
00> 3428
01> -17503
00> 3432
01> -17522
00> 3416
01> -17528
00> 3403
01> -17500
00> 3420
01> -17489
00> 3421
01> -17512
00> 3432
01> -17533
00> 3416
01> -17521
00> 3382
01> -17505
00> 3411
01> -17491
00> 3423
01> -17486
00> 3428
01> -17454
00> 3448
01> -17494
00> 3408
01> -17476
00> 3405
01> -17461
00> 3455
01> -17487
00> 3463
01> -17502
00> 3444
01> -17487
00> 3408
01> -17469
00> 3416
01> -17460
00> 3454
01> -17467
00> 3443
01> -17485
00> 3434
01> -17459
00> 3401
01> -17426
00> 3431
01> -17454
00> 3448
01> -17472
00> 3444
01> -17487
00> 3446
01> -17483
00> 3445
01> -17432
00> 3441
01> -17422
00> 3474
01> -17444
00> 3442
01> -17429
00> 3428
01> -17423
00> 3448
01> -17422
00> 3453
01> -17414
00> 3471
01> -17424
00> 3473
01> -17444
00> 3446
01> -17454
00> 3436
01> -17425
00> 3459
01> -17411
00> 3472
01> -17410
00> 3456
01> -17422
00> 3451
01> -17435
00> 3433
01> -17414
00> 3420
01> -17406
00> 3427
01> -17437
00> 3481
01> -17450
00> 3476
01> -17448
00> 3434
01> -17424
00> 3455
01> -17411
00> 3487
01> -17436
00> 3432
01> -17431
00> 3421
01> -17416
00> 3438
01> -17411
00> 3424
01> -17432
00> 3475
01> -17439
00> 3456
01> -17428
00> 3431
01> -17437
00> 3460
01> -17419
00> 3475
01> -17426
00> 3479
01> -17453
00> 3467
01> -17442
00> 3414
01> -17404
00> 3423
01> -17368
00> 3444
01> -17416
00> 3448
01> -17445
00> 3474
01> -17446
00> 3509
01> -17433
00> 3452
01> -17442
00> 3448
01> -17453
00> 3471
01> -17481
00> 3449
01> -17474
00> 3431
01> -17479
00> 3437
01> -17489
00> 3449
01> -17488
00> 3458
01> -17519
00> 3461
01> -17539
00> 3471
01> -17520
00> 3439
01> -17480
00> 3459
01> -17489
00> 3461
01> -17509
00> 3468
01> -17525
00> 3443
01> -17526
00> 3432
01> -17513
00> 3439
01> -17509
00> 3468
01> -17502
00> 3473
01> -17509
00> 3453
01> -17507
00> 3402
01> -17499
00> 3445
01> -17466
00> 3471
01> -17471
00> 3486
01> -17474
00> 3467
01> -17512
00> 3464
01> -17491
00> 3452
01> -17490
00> 3461
01> -17507
00> 3453
01> -17504
00> 3473
01> -17486
00> 3434
01> -17478
00> 3428
01> -17492
00> 3491
01> -17497
00> 3471
01> -17491
00> 3473
01> -17519
00> 3458
01> -17522
00> 3451
01> -17514
00> 3444
01> -17506
00> 3470
01> -17496
00> 3454
01> -17543
00> 3380
01> -17498
00> 3447
01> -17477
00> 3503
01> -17477
00> 3494
01> -17517
00> 3458
01> -17559
00> 3433
01> -17515
00> 3424
01> -17492
00> 3428
01> -17517
00> 3470
01> -17509
00> 3431
01> -17517
00> 3493
01> -17517
00> 3447
01> -17536
00> 3458
01> -17531
00> 3432
01> -17519
00> 3374
01> -17499
00> 3446
01> -17487
00> 3423
01> -17491
00> 3459
01> -17522
00> 3438
01> -17552
00> 3453
01> -17504
00> 3370
01> -17519
00> 3426
01> -17506
00> 3509
01> -17481
00> 3401
01> -17536
00> 3432
01> -17511
00> 3316
01> -17429
00> 3462
01> -17481
00> 3564
01> -17421
00> 3484
01> -17440
00> 3394
01> -17485
00> 3443
01> -17424
00> 3503
01> -17443
00> 3510
01> -17452
00> 3410
01> -17447
00> 3311
01> -17548
00> 3442
01> -17487
00> 3438
01> -17452
00> 3499
01> -17482
00> 3513
01> -17500
00> 3410
01> -17536
00> 3397
01> -17484
00> 3448
01> -17448
00> 3472
01> -17533
00> 3469
01> -17499
00> 3374
01> -17538
00> 3362
01> -17501
00> 3442
01> -17511
00> 3506
01> -17514
00> 3282
01> -17465
00> 3286
01> -17473
00> 3429
01> -17418
00> 3434
01> -17364
00> 3543
01> -17477
00> 3388
01> -17624
00> 3416
01> -17504
00> 3421
01> -17430
00> 3399
01> -17527
00> 3468
01> -17430
00> 3374
01> -17437
00> 3300
01> -17582
00> 3354
01> -17562
00> 3426
01> -17481
00> 3439
01> -17414
00> 3460
01> -17493
00> 3439
01> -17592
00> 3433
01> -17517
00> 3323
01> -17467
00> 3351
01> -17497
00> 3403
01> -17526
00> 3461
01> -17539
00> 3414
01> -17562
00> 3448
01> -17505
00> 3339
01> -17546
00> 3433
01> -17561
00> 3422
01> -17539
00> 3473
01> -17462
00> 3419
01> -17504
00> 3334
01> -17486
00> 3403
01> -17529
00> 3444
01> -17543
00> 3459
01> -17490
00> 3424
01> -17504
00> 3443
01> -17504
00> 3457
01> -17492
00> 3418
01> -17517
00> 3403
01> -17505
00> 3431
01> -17502
00> 3413
01> -17482
00> 3456
01> -17497
00> 3444
01> -17519
00> 3419
01> -17494
00> 3441
01> -17498
00> 3453
01> -17505
00> 3442
01> -17525
00> 3451
01> -17512
00> 3463
01> -17486
00> 3460
01> -17443
00> 3466
01> -17484
00> 3458
01> -17504
00> 3439
01> -17498
00> 3439
01> -17467
00> 3429
01> -17448
00> 3451
01> -17442
00> 3472
01> -17461
00> 3453
01> -17449
00> 3423
01> -17422
00> 3418
01> -17406
00> 3431
01> -17414
00> 3451
01> -17434
00> 3435
01> -17436
00> 3418
01> -17412
00> 3424
01> -17407
00> 3443
01> -17424
00> 3449
01> -17443
00> 3432
01> -17442
00> 3418
01> -17420
00> 3424
01> -17409
00> 3445
01> -17425
00> 3453
01> -17439
00> 3439
01> -17435
00> 3424
01> -17419
00> 3431
01> -17408
00> 3451
01> -17418
00> 3459
01> -17431
00> 3449
01> -17426
00> 3428
01> -17406
00> 3434
01> -17396
00> 3454
01> -17411
00> 3461
01> -17435
00> 3442
01> -17438
00> 3421
01> -17412
00> 3426

00> 3450
01> -17397
00> 3464
01> -17426
00> 3445
01> -17432
00> 3425
01> -17416
00> 3426
01> -17400
00> 3457
01> -17401
00> 3469
01> -17413
00> 3453
01> -17412
00> 3430
01> -17397
00> 3433
01> -17386
00> 3466
01> -17392
00> 3477
01> -17412
00> 3463
01> -17417
00> 3439
01> -17398
00> 3446
01> -17386
00> 3463
01> -17393
00> 3469
01> -17417
00> 3448
01> -17413
00> 3434
01> -17391
00> 3441
01> -17382
00> 3452
01> -17394
00> 3459
01> -17416
00> 3444
01> -17416
00> 3425
01> -17392
00> 3433
01> -17375
00> 3457
01> -17388
00> 3462
01> -17407
00> 3446
01> -17404
00> 3432
01> -17381
00> 3439
01> -17369
00> 3461
01> -17382
00> 3467
01> -17407
00> 3453
01> -17413
00> 3436
01> -17392
00> 3443
01> -17378
00> 3461
01> -17389
00> 3471
01> -17407
00> 3464
01> -17407
00> 3444
01> -17393
00> 3441
01> -17380
00> 3463
01> -17392
00> 3478
01> -17416
00> 3459
01> -17415
00> 3441
01> -17391
00> 3440
01> -17372
00> 3465
01> -17392
00> 3476
01> -17412
00> 3461
01> -17410
00> 3443
01> -17384
00> 3439
01> -17369
00> 3456
01> -17382
00> 3473
01> -17407
00> 3463
01> -17397
00> 3441
01> -17365
00> 3438
01> -17351
00> 3466
01> -17364
00> 3481
01> -17393
00> 3470
01> -17398
00> 3450
01> -17376
00> 3459
01> -17363
00> 3477
01> -17376
00> 3487
01> -17391
00> 3481
01> -17386
00> 3461
01> -17366
00> 3460
01> -17357
00> 3482
01> -17371
00> 3491
01> -17394
00> 3473
01> -17395
00> 3459
01> -17371
00> 3462
01> -17357
00> 3483
01> -17362
00> 3493
01> -17384
00> 3483
01> -17386
00> 3466
01> -17364
00> 3464
01> -17346
00> 3486
01> -17357
00> 3502
01> -17366
00> 3496
01> -17351
00> 3482
01> -17328
00> 3478
01> -17321
00> 3494
01> -17344
00> 3511
01> -17369
00> 3501
01> -17376
00> 3483
01> -17357
00> 3479
01> -17342
00> 3503
01> -17340
00> 3518
01> -17357
00> 3506
01> -17360
00> 3484
01> -17341
00> 3488
01> -17329
00> 3506
01> -17340
00> 3519
01> -17351
00> 3511
01> -17351
00> 3493
01> -17326
00> 3494
01> -17305
00> 3511
01> -17311
00> 3520
01> -17326
00> 3514
01> -17337
00> 3496
01> -17326
00> 3496
01> -17317
00> 3516
01> -17320
00> 3529
01> -17338
00> 3519
01> -17342
00> 3500
01> -17328
00> 3492
01> -17311
00> 3515
01> -17316
00> 3531
01> -17338
00> 3521
01> -17342
00> 3499
01> -17322
00> 3501
01> -17311
00> 3522
01> -17327
00> 3528
01> -17344
00> 3513
01> -17336
00> 3493
01> -17319
00> 3496
01> -17305
00> 3524
01> -17304
00> 3548
01> -17319
00> 3540
01> -17322
00> 3512
01> -17307
00> 3510
01> -17291
00> 3533
01> -17301
00> 3544
01> -17319
00> 3531
01> -17318
00> 3509
01> -17302
00> 3511
01> -17292
00> 3530
01> -17304
00> 3541
01> -17315
00> 3536
01> -17310
00> 3517
01> -17293
00> 3512
01> -17281
00> 3528
01> -17289
00> 3535
01> -17314
00> 3531
01> -17314
00> 3518
01> -17296
00> 3513
01> -17286
00> 3528
01> -17294
00> 3543
01> -17309
00> 3531
01> -17317
00> 3506
01> -17306
00> 3506
01> -17289
00> 3523
01> -17297
00> 3533
01> -17323
00> 3522
01> -17336
00> 3496
01> -17311
00> 3499
01> -17296
00> 3526
01> -17301
00> 3536
01> -17319
00> 3521
01> -17327
00> 3507
01> -17299
00> 3513
01> -17275
00> 3534
01> -17277
00> 3544
01> -17298
00> 3531
01> -17304
00> 3510
01> -17292
00> 3511
01> -17279
00> 3528
01> -17286
00> 3543
01> -17313
00> 3529
01> -17321
00> 3503
01> -17307
00> 3501
01> -17296
00> 3521
01> -17301
00> 3532
01> -17309
00> 3525
01> -17304
00> 3513
01> -17287
00> 3507
01> -17275
00> 3525
01> -17282
00> 3539
01> -17310
00> 3531
01> -17312
00> 3512
01> -17292
00> 3512
01> -17276
00> 3527
01> -17282
00> 3536
01> -17301
00> 3526
01> -17306
00> 3503
01> -17287
00> 3501
01> -17274
00> 3521
01> -17285
00> 3541
01> -17320
00> 3530
01> -17326
00> 3511
01> -17296
00> 3511
01> -17276
00> 3524
01> -17286
00> 3533
01> -17309
00> 3529
01> -17312
00> 3511
01> -17292
00> 3508
01> -17262
00> 3521
01> -17267
00> 3539
01> -17289
00> 3538
01> -17296
00> 3518
01> -17287
00> 3513
01> -17274
00> 3528
01> -17276
00> 3536
01> -17292
00> 3532
01> -17301
00> 3513
01> -17286
00> 3509
01> -17268
00> 3526
01> -17279
00> 3543
01> -17306
00> 3533
01> -17313
00> 3512
01> -17297
00> 3506
01> -17284
00> 3527
01> -17292
00> 3546
01> -17301
00> 3534
01> -17295
00> 3516
01> -17274
00> 3505
01> -17266
00> 3520
01> -17277
00> 3540
01> -17302
00> 3533
01> -17314
00> 3512
01> -17307
00> 3504
01> -17293
00> 3526
01> -17288
00> 3539
01> -17304
00> 3527
01> -17309
00> 3508
01> -17297
00> 3508
01> -17282
00> 3525
01> -17292
00> 3539
01> -17312
00> 3529
01> -17311
00> 3510
01> -17282
00> 3504
01> -17256
00> 3526
01> -17267
00> 3549
01> -17293
00> 3541
01> -17304
00> 3516
01> -17287
00> 3506
01> -17262
00> 3526
01> -17260
00> 3541
01> -17288
00> 3537
01> -17301
00> 3518
01> -17287
00> 3514
01> -17264
00> 3534
01> -17271
00> 3557
01> -17297
00> 3553
01> -17314
00> 3529
01> -17292
00> 3523
01> -17262
00> 3548
01> -17261
00> 3567
01> -17290
00> 3569
01> -17299
00> 3554
01> -17287
00> 3549
01> -17262
00> 3561
01> -17267
00> 3584
01> -17282
00> 3577
01> -17291
00> 3557
01> -17284
00> 3551
01> -17276
00> 3558
01> -17275
00> 3576
01> -17294
00> 3571
01> -17299
00> 3548
01> -17288
00> 3537
01> -17271
00> 3553
01> -17272
00> 3573
01> -17297
00> 3571
01> -17326
00> 3550
01> -17322
00> 3536
01> -17300
00> 3550
01> -17288
00> 3571
01> -17300
00> 3570
01> -17306
00> 3548
01> -17291
00> 3538
01> -17277
00> 3551
01> -17288
00> 3569
01> -17316
00> 3570
01> -17320
00> 3554
01> -17299
00> 3548
01> -17279
00> 3569
01> -17282
00> 3588
01> -17297
00> 3580
01> -17310
00> 3564
01> -17291
00> 3556
01> -17276
00> 3583
01> -17286
00> 3604
01> -17307
00> 3599
01> -17308
00> 3574
01> -17291
00> 3562
01> -17283
00> 3581
01> -17289
00> 3603
01> -17302
00> 3602
01> -17299
00> 3587
01> -17271
00> 3586
01> -17246
00> 3604
01> -17251
00> 3626
01> -17274
00> 3618
01> -17279
00> 3592
01> -17268
00> 3583
01> -17261
00> 3596
01> -17253
00> 3616
01> -17261
00> 3618
01> -17269
00> 3599
01> -17261
00> 3588
01> -17248
00> 3598
01> -17251
00> 3618
01> -17274
00> 3609
01> -17288
00> 3589
01> -17270
00> 3577
01> -17253
00> 3590
01> -17257
00> 3608
01> -17279
00> 3601
01> -17291
00> 3582
01> -17274
00> 3580
01> -17259
00> 3594
01> -17268
00> 3604
01> -17287
00> 3597
01> -17297
00> 3577
01> -17281
00> 3564
01> -17254
00> 3579
01> -17248
00> 3601
01> -17264
00> 3603
01> -17277
00> 3581
01> -17264
00> 3566
01> -17247
00> 3578
01> -17242
00> 3599
01> -17262
00> 3594
01> -17276
00> 3569
01> -17261
00> 3559
01> -17236
00> 3576
01> -17231
00> 3593
01> -17261
00> 3594
01> -17279
00> 3571
01> -17260
00> 3558
01> -17237
00> 3582
01> -17236
00> 3603
01> -17247
00> 3596
01> -17261
00> 3579
01> -17241
00> 3573
01> -17214
00> 3585
01> -17211
00> 3599
01> -17231
00> 3600
01> -17241
00> 3584
01> -17223
00> 3576
01> -17197
00> 3588
01> -17193
00> 3614
01> -17205
00> 3615
01> -17217
00> 3593
01> -17206
00> 3573
01> -17176
00> 3589
01> -17170
00> 3614
01> -17191
00> 3610
01> -17203
00> 3593
01> -17190
00> 3584
01> -17171
00> 3601
01> -17176
00> 3621
01> -17188
00> 3623
01> -17195
00> 3600
01> -17181
00> 3589
01> -17161
00> 3595
01> -17163
00> 3601
01> -17177
00> 3591
01> -17188
00> 3573
01> -17179
00> 3555
01> -17162
00> 3563
01> -17159
00> 3571
01> -17177
00> 3561
01> -17186
00> 3537
01> -17172
00> 3528
01> -17148
00> 3544
01> -17150
00> 3560
01> -17172
00> 3558
01> -17186
00> 3537
01> -17174
00> 3520
01> -17149
00> 3526
01> -17144
00> 3549
01> -17162
00> 3553
01> -17176
00> 3533
01> -17167
00> 3514
01> -17154
00> 3522
01> -17147
00> 3548
01> -17159
00> 3549
01> -17171
00> 3522
01> -17157
00> 3509
01> -17134
00> 3529
01> -17132
00> 3548
01> -17146
00> 3551
01> -17161
00> 3536
01> -17155
00> 3527
01> -17130
00> 3537
01> -17124
00> 3554
01> -17141
00> 3554
01> -17146
00> 3535
01> -17136
00> 3516
01> -17117
00> 3526
01> -17110
00> 3548
01> -17124
00> 3545
01> -17141
00> 3527
01> -17130
00> 3513
01> -17114
00> 3520
01> -17111
00> 3539
01> -17127
00> 3536
01> -17149
00> 3515
01> -17146
00> 3501
01> -17115
00> 3514
01> -17099
00> 3539
01> -17122
00> 3541
01> -17135
00> 3516
01> -17125
00> 3503
01> -17107
00> 3508
01> -17106
00> 3530
01> -17121
00> 3528
01> -17143
00> 3508
01> -17137
00> 3485
01> -17116
00> 3489
01> -17117
00> 3500
01> -17139
00> 3498
01> -17156
00> 3473
01> -17150
00> 3453
01> -17133
00> 3453
01> -17141
00> 3459
01> -17171
00> 3447
01> -17196
00> 3403
01> -17206
00> 3372
01> -17199
00> 3363
01> -17210
00> 3366
01> -17245
00> 3351
01> -17281
00> 3316
01> -17289
00> 3286
01> -17269
00> 3284
01> -17271
00> 3301
01> -17302
00> 3304
01> -17327
00> 3287
01> -17319
00> 3259
01> -17302
00> 3254
01> -17301
00> 3271
01> -17324
00> 3268
01> -17347
00> 3237
01> -17347
00> 3216
01> -17344
00> 3219
01> -17347
00> 3229
01> -17371
00> 3216
01> -17387
00> 3194
01> -17388
00> 3184
01> -17374
00> 3189
01> -17372
00> 3203
01> -17394
00> 3199
01> -17417
00> 3173
01> -17419
00> 3153
01> -17401
00> 3156
01> -17399
00> 3168
01> -17424
00> 3174
01> -17444
00> 3151
01> -17438
00> 3128
01> -17417
00> 3124
01> -17414
00> 3144
01> -17435
00> 3144
01> -17456
00> 3124
01> -17444
00> 3116
01> -17416
00> 3131
01> -17407
00> 3165
01> -17424
00> 3183
01> -17435
00> 3168
01> -17420
00> 3161
01> -17380
00> 3174
01> -17357
00> 3194
01> -17379
00> 3206
01> -17390
00> 3201
01> -17381
00> 3188
01> -17357
00> 3202
01> -17339
00> 3233
01> -17345
00> 3246
01> -17360
00> 3229
01> -17349
00> 3206
01> -17325
00> 3218
01> -17304
00> 3251
01> -17306
00> 3269
01> -17317
00> 3256
01> -17312
00> 3238
01> -17291
00> 3246
01> -17290
00> 3256
01> -17316
00> 3249
01> -17334
00> 3225
01> -17331
00> 3194
01> -17319
00> 3191
01> -17319
00> 3211
01> -17331
00> 3206
01> -17356
00> 3176
01> -17365
00> 3158
01> -17354
00> 3159
01> -17349
00> 3178
01> -17366
00> 3192
01> -17379
00> 3176
01> -17371
00> 3148
01> -17351
00> 3141
01> -17365
00> 3144
01> -17401
00> 3129
01> -17428
00> 3100
01> -17432
00> 3068
01> -17429
00> 3060
01> -17441
00> 3054
01> -17483
00> 3024
01> -17536
00> 2983
01> -17554
00> 2945
01> -17547
00> 2926
01> -17557
00> 2925
01> -17596
00> 2915
01> -17636
00> 2875
01> -17656
00> 2835
01> -17660
00> 2814
01> -17682
00> 2804
01> -17726
00> 2791
01> -17764
00> 2752
01> -17779
00> 2713
01> -17777
00> 2698
01> -17787
00> 2706
01> -17814
00> 2697
01> -17853
00> 2672
01> -17858
00> 2636
01> -17855
00> 2624
01> -17875
00> 2618
01> -17922
00> 2616
01> -17961
00> 2586
01> -17981
00> 2550
01> -17987
00> 2525
01> -17999
00> 2523
01> -18028
00> 2512
01> -18067
00> 2481
01> -18096
00> 2446
01> -18093
00> 2429
01> -18096
00> 2434
01> -18131
00> 2426
01> -18169
00> 2391
01> -18190
00> 2357
01> -18192
00> 2340
01> -18207
00> 2336
01> -18246
00> 2327
01> -18286
00> 2293
01> -18302
00> 2249
01> -18298
00> 2230
01> -18310
00> 2239
01> -18348
00> 2233
01> -18388
00> 2197
01> -18399
00> 2161
01> -18392
00> 2147
01> -18399
00> 2153
01> -18432
00> 2143
01> -18474
00> 2109
01> -18484
00> 2079
01> -18471
00> 2069
01> -18472
00> 2074
01> -18506
00> 2074
01> -18542
00> 2044
01> -18557
00> 2013
01> -18551
00> 2006
01> -18554
00> 2012
01> -18582
00> 2003
01> -18620
00> 1974
01> -18636
00> 1937
01> -18626
00> 1922
01> -18627
00> 1930
01> -18664
00> 1934
01> -18695
00> 1907
01> -18703
00> 1879
01> -18688
00> 1875
01> -18682
00> 1876
01> -18708
00> 1873
01> -18740
00> 1849
01> -18744
00> 1829
01> -18731
00> 1825
01> -18734
00> 1838
01> -18755
00> 1832
01> -18782
00> 1808
01> -18785
00> 1782
01> -18773
00> 1784
01> -18769
00> 1800
01> -18789
00> 1801
01> -18816
00> 1782
01> -18824
00> 1762
01> -18810
00> 1758
01> -18804
00> 1771
01> -18816
00> 1769
01> -18844
00> 1745
01> -18851
00> 1723
01> -18834
00> 1728
01> -18829
00> 1744
01> -18861
00> 1751
01> -18900
00> 1731
01> -18909
00> 1706
01> -18882
00> 1706
01> -18857
00> 1728
01> -18862
00> 1731
01> -18892
00> 1708
01> -18907
00> 1686
01> -18891
00> 1685
01> -18879
00> 1703
01> -18888
00> 1711
01> -18906
00> 1701
01> -18908
00> 1676
01> -18896
00> 1669
01> -18889
00> 1694
01> -18904
00> 1699
01> -18933
00> 1684
01> -18936
00> 1664
01> -18916
00> 1666
01> -18908
00> 1688
01> -18930
00> 1701
01> -18946
00> 1691
01> -18941
00> 1673
01> -18917
00> 1678
01> -18901
00> 1701
01> -18919
00> 1714
01> -18938
00> 1704
01> -18927
00> 1689
01> -18897
00> 1699
01> -18875
00> 1733
01> -18885
00> 1751
01> -18902
00> 1751
01> -18883
00> 1734
01> -18866
00> 1737
01> -18857
00> 1751
01> -18838
00> 1776
01> -18829
00> 1786
01> -18802
00> 1776
01> -18771
00> 1790
01> -18714
00> 1811
01> -18689
00> 1828
01> -18671
00> 1834
01> -18622
00> 1849
01> -18536
00> 1863
01> -18461
00> 1906
01> -18403
00> 1950
01> -18349
00> 1964
01> -18282
00> 1969
01> -18206
00> 1991
01> -18128
00> 2031
01> -18081
00> 2058
01> -18059
00> 2054
01> -18042
00> 2044
01> -18014
00> 2046
01> -17992
00> 2068
01> -17986
00> 2088
01> -17997
00> 2077
01> -18000
00> 2054
01> -17996
00> 2051
01> -17994
00> 2074
01> -18010
00> 2078
01> -18041
00> 2073
01> -18037
00> 2049
01> -18034
00> 2039
01> -18034
00> 2051
01> -18055
00> 2060
01> -18097
00> 2048
01> -18116
00> 2029
01> -18107
00> 2028
01> -18111
00> 2051
01> -18127
00> 2065
01> -18149
00> 2054
01> -18152
00> 2041
01> -18140
00> 2046
01> -18142
00> 2065
01> -18158
00> 2079
01> -18189
00> 2074
01> -18197
00> 2059
01> -18188
00> 2059
01> -18184
00> 2080
01> -18204
00> 2096
01> -18230
00> 2090
01> -18238
00> 2076
01> -18225
00> 2084
01> -18204
00> 2117
01> -18211
00> 2140
01> -18239
00> 2133
01> -18251
00> 2124
01> -18231
00> 2136
01> -18204
00> 2171
01> -18204
00> 2198
01> -18221
00> 2203
01> -18215
00> 2199
01> -18189
00> 2210
01> -18169
00> 2241
01> -18168
00> 2265
01> -18174
00> 2267
01> -18176
00> 2255
01> -18152
00> 2268
01> -18118
00> 2296
01> -18121
00> 2323
01> -18138
00> 2330
01> -18135
00> 2323
01> -18107
00> 2334
01> -18082
00> 2370
01> -18083
00> 2386
01> -18095
00> 2393
01> -18077
00> 2394
01> -18042
00> 2413
01> -18009
00> 2445
01> -17995
00> 2463
01> -17996
00> 2464
01> -17986
00> 2460
01> -17949
00> 2485
01> -17892
00> 2522
01> -17846
00> 2549
01> -17821
00> 2566
01> -17772
00> 2574
01> -17693
00> 2598
01> -17610
00> 2644
01> -17554
00> 2691
01> -17508
00> 2702
01> -17460
00> 2706
01> -17389
00> 2735
01> -17322
00> 2768
01> -17301
00> 2799
01> -17289
00> 2812
01> -17262
00> 2803
01> -17233
00> 2803
01> -17207
00> 2827
01> -17209
00> 2834
01> -17236
00> 2828
01> -17251
00> 2821
01> -17244
00> 2811
01> -17250
00> 2822
01> -17267
00> 2833
01> -17304
00> 2830
01> -17319
00> 2818
01> -17321
00> 2806
01> -17329
00> 2818
01> -17357
00> 2838
01> -17397
00> 2829
01> -17416
00> 2802
01> -17419
00> 2796
01> -17421
00> 2821
01> -17442
00> 2842
01> -17472
00> 2839
01> -17496
00> 2814
01> -17491
00> 2811
01> -17482
00> 2833
01> -17496
00> 2851
01> -17530
00> 2843
01> -17554
00> 2833
01> -17550
00> 2826
01> -17546
00> 2851
01> -17555
00> 2868
01> -17588
00> 2856
01> -17610
00> 2831
01> -17609
00> 2833
01> -17598
00> 2851
01> -17601
00> 2874
01> -17625
00> 2876
01> -17642
00> 2858
01> -17637
00> 2856
01> -17636
00> 2876
01> -17647
00> 2893
01> -17672
00> 2884
01> -17683
00> 2866
01> -17671
00> 2862
01> -17651
00> 2884
01> -17661
00> 2911
01> -17687
00> 2912
01> -17703
00> 2892
01> -17695
00> 2888
01> -17680
00> 2904
01> -17686
00> 2928
01> -17711
00> 2928
01> -17722
00> 2914
01> -17711
00> 2907
01> -17702
00> 2918
01> -17708
00> 2944
01> -17729
00> 2947
01> -17728
00> 2928
01> -17713
00> 2926
01> -17698
00> 2944
01> -17691
00> 2972
01> -17711
00> 2971
01> -17724
00> 2955
01> -17708
00> 2956
01> -17686
00> 2979
01> -17688
00> 3001
01> -17709
00> 2996
01> -17721
00> 2977
01> -17702
00> 2980
01> -17679
00> 3006
01> -17681
00> 3027
01> -17701
00> 3030
01> -17711
00> 3011
01> -17692
00> 3008
01> -17665
00> 3023
01> -17662
00> 3048
01> -17682
00> 3051
01> -17689
00> 3033
01> -17671
00> 3029
01> -17654
00> 3053
01> -17660
00> 3076
01> -17682
00> 3073
01> -17686
00> 3049
01> -17670
00> 3048
01> -17648
00> 3068
01> -17651
00> 3094
01> -17667
00> 3099
01> -17672
00> 3088
01> -17662
00> 3079
01> -17651
00> 3093
01> -17651
00> 3115
01> -17671
00> 3113
01> -17678
00> 3089
01> -17664
00> 3084
01> -17641
00> 3107
01> -17642
00> 3129
01> -17664
00> 3126
01> -17676
00> 3106
01> -17657
00> 3100
01> -17634
00> 3126
01> -17638
00> 3145
01> -17662
00> 3149
01> -17674
00> 3128
01> -17661
00> 3115
01> -17637
00> 3133
01> -17636
00> 3159
01> -17655
00> 3158
01> -17665
00> 3143
01> -17641
00> 3137
01> -17619
00> 3151
01> -17624
00> 3175
01> -17648
00> 3181
01> -17654
00> 3164
01> -17637
00> 3151
01> -17615
00> 3169
01> -17619
00> 3191
01> -17637
00> 3188
01> -17641
00> 3173
01> -17629
00> 3170
01> -17616
00> 3193
01> -17619
00> 3209
01> -17639
00> 3203
01> -17648
00> 3190
01> -17626
00> 3193
01> -17607
00> 3213
01> -17608
00> 3231
01> -17622
00> 3230
01> -17626
00> 3216
01> -17612
00> 3208
01> -17587
00> 3225
01> -17579
00> 3249
01> -17606
00> 3254
01> -17621
00> 3233
01> -17606
00> 3223
01> -17583
00> 3239
01> -17579
00> 3264
01> -17596
00> 3270
01> -17606
00> 3249
01> -17593
00> 3245
01> -17580
00> 3259
01> -17584
00> 3276
01> -17598
00> 3277
01> -17606
00> 3263
01> -17592
00> 3260
01> -17574
00> 3274
01> -17572
00> 3297
01> -17592
00> 3295
01> -17602
00> 3276
01> -17584
00> 3275
01> -17569
00> 3297
01> -17567
00> 3319
01> -17583
00> 3326
01> -17586
00> 3305
01> -17577
00> 3298
01> -17558
00> 3320
01> -17562
00> 3341
01> -17586
00> 3339
01> -17592
00> 3323
01> -17576
00> 3311
01> -17552
00> 3319
01> -17554
00> 3342
01> -17572
00> 3345
01> -17586
00> 3328
01> -17571
00> 3322
01> -17546
00> 3329
01> -17553
00> 3354
01> -17579
00> 3359
01> -17589
00> 3331
01> -17579
00> 3325
01> -17560
00> 3348
01> -17557
00> 3368
01> -17583
00> 3371
01> -17596
00> 3348
01> -17581
00> 3333
01> -17572
00> 3349
01> -17569
00> 3367
01> -17590
00> 3372
01> -17602
00> 3353
01> -17594
00> 3346
01> -17572
00> 3361
01> -17565
00> 3388
01> -17584
00> 3388
01> -17595
00> 3374
01> -17581
00> 3363
01> -17565
00> 3373
01> -17566
00> 3395
01> -17577
00> 3395
01> -17586
00> 3376
01> -17579
00> 3370
01> -17567
00> 3383
01> -17576
00> 3404
01> -17597
00> 3401
01> -17608
00> 3388
01> -17584
00> 3374
01> -17563
00> 3389
01> -17561
00> 3415
01> -17578
00> 3415
01> -17597
00> 3395
01> -17584
00> 3390
01> -17559
00> 3403
01> -17559
00> 3424
01> -17578
00> 3423
01> -17592
00> 3398
01> -17591
00> 3384
01> -17579
00> 3398
01> -17577
00> 3420
01> -17590
00> 3428
01> -17597
00> 3418
01> -17590
00> 3413
01> -17579
00> 3423
01> -17577
00> 3449
01> -17595
00> 3452
01> -17607
00> 3434
01> -17597
00> 3424
01> -17577
00> 3443
01> -17574
00> 3458
01> -17601
00> 3460
01> -17617
00> 3451
01> -17602
00> 3447
01> -17580
00> 3456
01> -17576
00> 3469
01> -17588
00> 3476
01> -17601
00> 3461
01> -17592
00> 3451
01> -17570
00> 3459
01> -17566
00> 3482
01> -17589
00> 3481
01> -17611
00> 3464
01> -17591
00> 3457
01> -17560
00> 3466
01> -17555
00> 3494
01> -17571
00> 3496
01> -17582
00> 3478
01> -17574
00> 3466
01> -17561
00> 3469
01> -17561
00> 3481
01> -17578
00> 3476
01> -17598
00> 3458
01> -17589
00> 3444
01> -17565
00> 3446
01> -17564
00> 3469
01> -17578
00> 3481
01> -17593
00> 3461
01> -17586
00> 3449
01> -17561
00> 3459
01> -17551
00> 3483
01> -17569
00> 3484
01> -17592
00> 3460
01> -17586
00> 3444
01> -17563
00> 3459
01> -17560
00> 3485
01> -17574
00> 3493
01> -17588
00> 3477
01> -17584
00> 3464
01> -17573
00> 3472
01> -17569
00> 3496
01> -17586
00> 3502
01> -17599
00> 3486
01> -17586
00> 3469
01> -17564
00> 3481
01> -17544
00> 3503
01> -17555
00> 3508
01> -17579
00> 3499
01> -17580
00> 3493
01> -17559
00> 3506
01> -17556
00> 3524
01> -17582
00> 3527
01> -17600
00> 3514
01> -17580
00> 3507
01> -17553
00> 3526
01> -17546
00> 3554
01> -17566
00> 3566
01> -17587
00> 3558
01> -17588
00> 3546
01> -17569
00> 3563
01> -17550
00> 3584
01> -17566
00> 3596
01> -17587
00> 3583
01> -17578
00> 3571
01> -17554
00> 3583
01> -17546
00> 3602
01> -17564
00> 3606
01> -17571
00> 3586
01> -17565
00> 3564
01> -17547
00> 3569
01> -17544
00> 3589
01> -17565
00> 3588
01> -17586
00> 3564
01> -17576
00> 3544
01> -17552
00> 3553
01> -17545
00> 3575
01> -17561
00> 3578
01> -17577
00> 3559
01> -17571
00> 3542
01> -17549
00> 3548
01> -17543
00> 3573
01> -17559
00> 3574
01> -17574
00> 3561
01> -17562
00> 3546
01> -17544
00> 3553
01> -17540
00> 3576
01> -17560
00> 3586
01> -17581
00> 3573

00> 3549
01> -17552
00> 3553
01> -17534
00> 3579
01> -17548
00> 3589
01> -17567
00> 3577
01> -17565
00> 3565
01> -17548
00> 3569
01> -17539
00> 3589
01> -17552
00> 3600
01> -17570
00> 3587
01> -17569
00> 3563
01> -17552
00> 3573
01> -17542
00> 3594
01> -17554
00> 3597
01> -17575
00> 3579
01> -17579
00> 3563
01> -17559
00> 3573
01> -17546
00> 3601
01> -17554
00> 3606
01> -17574
00> 3585
01> -17574
00> 3563
01> -17552
00> 3567
01> -17546
00> 3593
01> -17565
00> 3601
01> -17583
00> 3587
01> -17575
00> 3578
01> -17547
00> 3586
01> -17534
00> 3609
01> -17554
00> 3624
01> -17568
00> 3603
01> -17563
00> 3585
01> -17535
00> 3591
01> -17522
00> 3614
01> -17543
00> 3625
01> -17556
00> 3614
01> -17548
00> 3601
01> -17536
00> 3609
01> -17521
00> 3629
01> -17529
00> 3639
01> -17541
00> 3626
01> -17539
00> 3613
01> -17520
00> 3623
01> -17508
00> 3646
01> -17521
00> 3657
01> -17537
00> 3634
01> -17540
00> 3618
01> -17521
00> 3629
01> -17512
00> 3652
01> -17528
00> 3659
01> -17551
00> 3650
01> -17544
00> 3642
01> -17512
00> 3648
01> -17507
00> 3666
01> -17516
00> 3678
01> -17529
00> 3671
01> -17528
00> 3663
01> -17512
00> 3678
01> -17509
00> 3709
01> -17527
00> 3727
01> -17542
00> 3711
01> -17536
00> 3701
01> -17517
00> 3725
01> -17500
00> 3756
01> -17514
00> 3778
01> -17537
00> 3776
01> -17537
00> 3776
01> -17514
00> 3803
01> -17497
00> 3838
01> -17508
00> 3859
01> -17529
00> 3848
01> -17527
00> 3838
01> -17509
00> 3846
01> -17501
00> 3861
01> -17512
00> 3844
01> -17534
00> 3799
01> -17533
00> 3749
01> -17516
00> 3731
01> -17516
00> 3738
01> -17532
00> 3743
01> -17554
00> 3728
01> -17559
00> 3711
01> -17538
00> 3714
01> -17536
00> 3733
01> -17551
00> 3741
01> -17564
00> 3728
01> -17561
00> 3705
01> -17539
00> 3714
01> -17522
00> 3731
01> -17526
00> 3740
01> -17552
00> 3726
01> -17564
00> 3708
01> -17551
00> 3713
01> -17535
00> 3736
01> -17551
00> 3742
01> -17573
00> 3729
01> -17567
00> 3710
01> -17544
00> 3718
01> -17532
00> 3743
01> -17541
00> 3751
01> -17566
00> 3738
01> -17570
00> 3715
01> -17550
00> 3717
01> -17543
00> 3738
01> -17552
00> 3746
01> -17570
00> 3728
01> -17568
00> 3708
01> -17546
00> 3717
01> -17539
00> 3741
01> -17556
00> 3756
01> -17576
00> 3748
01> -17575
00> 3733
01> -17545
00> 3741
01> -17527
00> 3764
01> -17541
00> 3770
01> -17565
00> 3761
01> -17561
00> 3743
01> -17534
00> 3748
01> -17517
00> 3769
01> -17529
00> 3779
01> -17549
00> 3771
01> -17554
00> 3749
01> -17544
00> 3746
01> -17525
00> 3766
01> -17535
00> 3779
01> -17554
00> 3754
01> -17554
00> 3737
01> -17537
00> 3744
01> -17520
00> 3769
01> -17529
00> 3767
01> -17551
00> 3746
01> -17552
00> 3729
01> -17535
00> 3727
01> -17531
00> 3738
01> -17538
00> 3745
01> -17549
00> 3725
01> -17551
00> 3703
01> -17536
00> 3707
01> -17524
00> 3723
01> -17542
00> 3735
01> -17560
00> 3719
01> -17556
00> 3698
01> -17538
00> 3705
01> -17528
00> 3729
01> -17547
00> 3740
01> -17572
00> 3724
01> -17577
00> 3701
01> -17549
00> 3704
01> -17529
00> 3724
01> -17546
00> 3738
01> -17570
00> 3725
01> -17572
00> 3701
01> -17552
00> 3699
01> -17542
00> 3716
01> -17551
00> 3723
01> -17579
00> 3708
01> -17581
00> 3691
01> -17561
00> 3684
01> -17556
00> 3703
01> -17569
00> 3723
01> -17584
00> 3714
01> -17589
00> 3693
01> -17571
00> 3697
01> -17556
00> 3733
01> -17565
00> 3757
01> -17584
00> 3748
01> -17594
00> 3728
01> -17582
00> 3732
01> -17568
00> 3761
01> -17578
00> 3788
01> -17602
00> 3794
01> -17602
00> 3802
01> -17584
00> 3833
01> -17574
00> 3881
01> -17586
00> 3912
01> -17612
00> 3913
01> -17616
00> 3899
01> -17597
00> 3913
01> -17580
00> 3941
01> -17592
00> 3952
01> -17614
00> 3943
01> -17616
00> 3932
01> -17600
00> 3941
01> -17589
00> 3966
01> -17601
00> 3989
01> -17622
00> 3989
01> -17624
00> 3978
01> -17601
00> 3985
01> -17592
00> 4011
01> -17606
00> 4024
01> -17629
00> 4018
01> -17632
00> 4002
01> -17613
00> 4013
01> -17599
00> 4043
01> -17616
00> 4063
01> -17639
00> 4056
01> -17637
00> 4039
01> -17624
00> 4041
01> -17612
00> 4064
01> -17625
00> 4084
01> -17652
00> 4072
01> -17662
00> 4046
01> -17656
00> 4049
01> -17656
00> 4069
01> -17687
00> 4077
01> -17720
00> 4058
01> -17730
00> 4041
01> -17716
00> 4044
01> -17713
00> 4068
01> -17725
00> 4086
01> -17746
00> 4074
01> -17755
00> 4055
01> -17750
00> 4056
01> -17739
00> 4079
01> -17751
00> 4093
01> -17781
00> 4086
01> -17793
00> 4067
01> -17783
00> 4067
01> -17773
00> 4088
01> -17782
00> 4101
01> -17806
00> 4088
01> -17818
00> 4074
01> -17807
00> 4071
01> -17801
00> 4085
01> -17817
00> 4104
01> -17839
00> 4101
01> -17848
00> 4078
01> -17837
00> 4078
01> -17830
00> 4099
01> -17845
00> 4108
01> -17872
00> 4093
01> -17885
00> 4072
01> -17873
00> 4067
01> -17859
00> 4089
01> -17876
00> 4102
01> -17911
00> 4091
01> -17924
00> 4069
01> -17912
00> 4069
01> -17902
00> 4093
01> -17926
00> 4101
01> -17965
00> 4090
01> -17981
00> 4069
01> -17971
00> 4068
01> -17959
00> 4087
01> -17966
00> 4102
01> -18002
00> 4092
01> -18019
00> 4070
01> -18009
00> 4059
01> -18006
00> 4064
01> -18031
00> 4073
01> -18066
00> 4062
01> -18082
00> 4037
01> -18082
00> 4022
01> -18085
00> 4036
01> -18110
00> 4038
01> -18154
00> 4017
01> -18181
00> 3981
01> -18178
00> 3964
01> -18180
00> 3973
01> -18210
00> 3986
01> -18255
00> 3967
01> -18279
00> 3931
01> -18287
00> 3921
01> -18287
00> 3933
01> -18315
00> 3938
01> -18360
00> 3920
01> -18395
00> 3900
01> -18400
00> 3885
01> -18406
00> 3888
01> -18432
00> 3902
01> -18472
00> 3894
01> -18504
00> 3869
01> -18509
00> 3863
01> -18516
00> 3873
01> -18546
00> 3883
01> -18579
00> 3861
01> -18599
00> 3829
01> -18600
00> 3821
01> -18596
00> 3836
01> -18623
00> 3851
01> -18669
00> 3829
01> -18704
00> 3791
01> -18712
00> 3771
01> -18717
00> 3775
01> -18741
00> 3786
01> -18777
00> 3774
01> -18807
00> 3738
01> -18816
00> 3720
01> -18824
00> 3732
01> -18856
00> 3737
01> -18912
00> 3709
01> -18950
00> 3682
01> -18954
00> 3668
01> -18963
00> 3675
01> -19001
00> 3684
01> -19055
00> 3671
01> -19094
00> 3644
01> -19105
00> 3622
01> -19106
00> 3629
01> -19131
00> 3644
01> -19180
00> 3641
01> -19215
00> 3612
01> -19219
00> 3599
01> -19221
00> 3613
01> -19251
00> 3619
01> -19299
00> 3598
01> -19333
00> 3570
01> -19344
00> 3548
01> -19351
00> 3559
01> -19384
00> 3565
01> -19439
00> 3542
01> -19482
00> 3507
01> -19488
00> 3484
01> -19492
00> 3488
01> -19524
00> 3494
01> -19576
00> 3479
01> -19622
00> 3448
01> -19635
00> 3421
01> -19643
00> 3431
01> -19675
00> 3438
01> -19727
00> 3413
01> -19770
00> 3373
01> -19784
00> 3351
01> -19786
00> 3351
01> -19815
00> 3355
01> -19867
00> 3341
01> -19907
00> 3314
01> -19921
00> 3296
01> -19926
00> 3298
01> -19954
00> 3306
01> -19994
00> 3298
01> -20027
00> 3269
01> -20040
00> 3246
01> -20043
00> 3253
01> -20067
00> 3266
01> -20105
00> 3245
01> -20143
00> 3215
01> -20147
00> 3194
01> -20142
00> 3198
01> -20162
00> 3203
01> -20209
00> 3186
01> -20240
00> 3151
01> -20251
00> 3124
01> -20250
00> 3129
01> -20273
00> 3135
01> -20316
00> 3123
01> -20339
00> 3096
01> -20336
00> 3076
01> -20334
00> 3082
01> -20345
00> 3102
01> -20376
00> 3093
01> -20401
00> 3064
01> -20396
00> 3046
01> -20381
00> 3051
01> -20391
00> 3064
01> -20426
00> 3052
01> -20445
00> 3029
01> -20435
00> 3015
01> -20416
00> 3025
01> -20411
00> 3039
01> -20431
00> 3041
01> -20437
00> 3015
01> -20420
00> 3001
01> -20403
00> 3016
01> -20392
00> 3031
01> -20396
00> 3028
01> -20396
00> 3004
01> -20374
00> 2996
01> -20339
00> 3006
01> -20327
00> 3023
01> -20336
00> 3019
01> -20325
00> 2997
01> -20301
00> 2987
01> -20276
00> 2996
01> -20263
00> 3015
01> -20266
00> 3014
01> -20261
00> 2994
01> -20230
00> 2991
01> -20185
00> 3009
01> -20157
00> 3028
01> -20153
00> 3024
01> -20137
00> 3030
01> -20089
00> 3024
01> -20051
00> 3031
01> -20021
00> 3066
01> -20008
00> 3076
01> -19974
00> 3054
01> -19929
00> 3048
01> -19872
00> 3065
01> -19834
00> 3094
01> -19807
00> 3101
01> -19762
00> 3091
01> -19697
00> 3094
01> -19623
00> 3124
01> -19564
00> 3156
01> -19522
00> 3166
01> -19478
00> 3154
01> -19410
00> 3157
01> -19342
00> 3186
01> -19298
00> 3214
01> -19275
00> 3223
01> -19245
00> 3207
01> -19195
00> 3209
01> -19140
00> 3239
01> -19115
00> 3262
01> -19122
00> 3257
01> -19129
00> 3236
01> -19116
00> 3220
01> -19092
00> 3223
01> -19088
00> 3226
01> -19104
00> 3195
01> -19122
00> 3156
01> -19117
00> 3141
01> -19100
00> 3150
01> -19095
00> 3169
01> -19114
00> 3166
01> -19127
00> 3136
01> -19117
00> 3127
01> -19101
00> 3141
01> -19099
00> 3154
01> -19122
00> 3153
01> -19130
00> 3130
01> -19113
00> 3126
01> -19086
00> 3138
01> -19088
00> 3159
01> -19109
00> 3161
01> -19116
00> 3141
01> -19092
00> 3143
01> -19067
00> 3169
01> -19046
00> 3198
01> -19047
00> 3209
01> -19055
00> 3201
01> -19036
00> 3192
01> -19009
00> 3209
01> -18991
00> 3244
01> -18989
00> 3249
01> -18993
00> 3236
01> -18974
00> 3235
01> -18937
00> 3247
01> -18916
00> 3273
01> -18914
00> 3287
01> -18905
00> 3277
01> -18884
00> 3277
01> -18830
00> 3301
01> -18782
00> 3319
01> -18771
00> 3339
01> -18741
00> 3349
01> -18669
00> 3359
01> -18592
00> 3393
01> -18540
00> 3434
01> -18499
00> 3459
01> -18445
00> 3466
01> -18382
00> 3476
01> -18317
00> 3512
01> -18267
00> 3549
01> -18251
00> 3561
01> -18239
00> 3548
01> -18211
00> 3549
01> -18169
00> 3556
01> -18155
00> 3577
01> -18176
00> 3576
01> -18195
00> 3548
01> -18193
00> 3531
01> -18181
00> 3533
01> -18191
00> 3546
01> -18217
00> 3547
01> -18235
00> 3520
01> -18241
00> 3496
01> -18230
00> 3505
01> -18222
00> 3524
01> -18254
00> 3526
01> -18284
00> 3498
01> -18277
00> 3474
01> -18258
00> 3489
01> -18251
00> 3507
01> -18269
00> 3506
01> -18290
00> 3491
01> -18288
00> 3479
01> -18271
00> 3492
01> -18267
00> 3506
01> -18291
00> 3501
01> -18313
00> 3479
01> -18307
00> 3464
01> -18292
00> 3475
01> -18290
00> 3489
01> -18312
00> 3497
01> -18331
00> 3475
01> -18325
00> 3454
01> -18306
00> 3471
01> -18304
00> 3492
01> -18326
00> 3493
01> -18348
00> 3476
01> -18344
00> 3455
01> -18322
00> 3466
01> -18314
00> 3485
01> -18336
00> 3486
01> -18353
00> 3470
01> -18339
00> 3456
01> -18319
00> 3465
01> -18314
00> 3486
01> -18334
00> 3493
01> -18349
00> 3475
01> -18343
00> 3461
01> -18325
00> 3474
01> -18317
00> 3498
01> -18334
00> 3501
01> -18347
00> 3476
01> -18344
00> 3458
01> -18320
00> 3472
01> -18306
00> 3497
01> -18326
00> 3499
01> -18344
00> 3483
01> -18337
00> 3474
01> -18314
00> 3488
01> -18300
00> 3509
01> -18319
00> 3508
01> -18330
00> 3491
01> -18311
00> 3481
01> -18278
00> 3491
01> -18266
00> 3521
01> -18277
00> 3527
01> -18280
00> 3504
01> -18267
00> 3494
01> -18241
00> 3508
01> -18232
00> 3533
01> -18249
00> 3537
01> -18271
00> 3519
01> -18253
00> 3511
01> -18216
00> 3518
01> -18195
00> 3544
01> -18206
00> 3555
01> -18220
00> 3541
01> -18209
00> 3526
01> -18185
00> 3539
01> -18166
00> 3558
01> -18173
00> 3569
01> -18186
00> 3553
01> -18177
00> 3544
01> -18143
00> 3563
01> -18131
00> 3589
01> -18155
00> 3594
01> -18172
00> 3577
01> -18154
00> 3566
01> -18121
00> 3574
01> -18110
00> 3599
01> -18124
00> 3605
01> -18140
00> 3588
01> -18126
00> 3574
01> -18094
00> 3586
01> -18081
00> 3609
01> -18089
00> 3615
01> -18101
00> 3604
01> -18099
00> 3589
01> -18079
00> 3599
01> -18063
00> 3625
01> -18074
00> 3629
01> -18082
00> 3613
01> -18062
00> 3598
01> -18035
00> 3605
01> -18026
00> 3625
01> -18043
00> 3638
01> -18052
00> 3626
01> -18043
00> 3616
01> -18022
00> 3620
01> -18016
00> 3641
01> -18024
00> 3652
01> -18032
00> 3628
01> -18022
00> 3613
01> -17993
00> 3633
01> -17973
00> 3658
01> -17986
00> 3671
01> -18001
00> 3658
01> -17985
00> 3639
01> -17961
00> 3641
01> -17949
00> 3667
01> -17957
00> 3683
01> -17970
00> 3674
01> -17964
00> 3658
01> -17941
00> 3659
01> -17918
00> 3682
01> -17920
00> 3698
01> -17934
00> 3686
01> -17928
00> 3673
01> -17898
00> 3678
01> -17887
00> 3693
01> -17899
00> 3708
01> -17910
00> 3696
01> -17902
00> 3673
01> -17874
00> 3681
01> -17866
00> 3710
01> -17876
00> 3712
01> -17891
00> 3696
01> -17889
00> 3680
01> -17866
00> 3683
01> -17854
00> 3706
01> -17861
00> 3722
01> -17872
00> 3711
01> -17867
00> 3698
01> -17847
00> 3701
01> -17837
00> 3728
01> -17840
00> 3740
01> -17847
00> 3728
01> -17837
00> 3707
01> -17809
00> 3728
01> -17777
00> 3754
01> -17790
00> 3766
01> -17796
00> 3768
01> -17767
00> 3771
01> -17719
00> 3784
01> -17702
00> 3801
01> -17704
00> 3809
01> -17695
00> 3821
01> -17639
00> 3809
01> -17587
00> 3813
01> -17557
00> 3858
01> -17530
00> 3893
01> -17502
00> 3889
01> -17450
00> 3882
01> -17374
00> 3911
01> -17312
00> 3951
01> -17284
00> 3976
01> -17264
00> 3970
01> -17229
00> 3961
01> -17187
00> 3973
01> -17163
00> 3991
01> -17180
00> 3996
01> -17202
00> 3980
01> -17197
00> 3954
01> -17173
00> 3943
01> -17166
00> 3961
01> -17188
00> 3976
01> -17222
00> 3949
01> -17246
00> 3921
01> -17241
00> 3916
01> -17246
00> 3924
01> -17279
00> 3924
01> -17311
00> 3905
01> -17319
00> 3886
01> -17311
00> 3887
01> -17314
00> 3898
01> -17330
00> 3899
01> -17353
00> 3879
01> -17366
00> 3855
01> -17356
00> 3853
01> -17351
00> 3871
01> -17380
00> 3873
01> -17411
00> 3848
01> -17416
00> 3821
01> -17407
00> 3816
01> -17412
00> 3820
01> -17436
00> 3822
01> -17459
00> 3813
01> -17471
00> 3799
01> -17463
00> 3794
01> -17464
00> 3809
01> -17486
00> 3809
01> -17512
00> 3791
01> -17513
00> 3779
01> -17489
00> 3786
01> -17486
00> 3804
01> -17514
00> 3813
01> -17540
00> 3795
01> -17549
00> 3771
01> -17534
00> 3773
01> -17524
00> 3793
01> -17543
00> 3803
01> -17565
00> 3787
01> -17566
00> 3768
01> -17551
00> 3767
01> -17546
00> 3781
01> -17566
00> 3783
01> -17587
00> 3767
01> -17591
00> 3752
01> -17572
00> 3757
01> -17561
00> 3776
01> -17578
00> 3785
01> -17601
00> 3771
01> -17607
00> 3748
01> -17588
00> 3743
01> -17567
00> 3770
01> -17576
00> 3786
01> -17601
00> 3773
01> -17607
00> 3750
01> -17582
00> 3747
01> -17571
00> 3772
01> -17587
00> 3783
01> -17610
00> 3774
01> -17610
00> 3754
01> -17592
00> 3753
01> -17576
00> 3774
01> -17581
00> 3789
01> -17602
00> 3778
01> -17602
00> 3759
01> -17578
00> 3759
01> -17566
00> 3778
01> -17571
00> 3792
01> -17593
00> 3781
01> -17605
00> 3763
01> -17588
00> 3758
01> -17571
00> 3778
01> -17582
00> 3795
01> -17601
00> 3784
01> -17597
00> 3758
01> -17579
00> 3757
01> -17569
00> 3781
01> -17577
00> 3799
01> -17597
00> 3785
01> -17601
00> 3764
01> -17577
00> 3764
01> -17559
00> 3787
01> -17562
00> 3796
01> -17579
00> 3786
01> -17577
00> 3768
01> -17552
00> 3771
01> -17532
00> 3793
01> -17546
00> 3809
01> -17568
00> 3799
01> -17570
00> 3781
01> -17543
00> 3778
01> -17522
00> 3796
01> -17523
00> 3811
01> -17544
00> 3809
01> -17543
00> 3788
01> -17521
00> 3778
01> -17512
00> 3796
01> -17519
00> 3816
01> -17537
00> 3808
01> -17539
00> 3792
01> -17515
00> 3790
01> -17496
00> 3809
01> -17506
00> 3826
01> -17528
00> 3812
01> -17534
00> 3792
01> -17513
00> 3794
01> -17491
00> 3816
01> -17499
00> 3829
01> -17526
00> 3818
01> -17526
00> 3803
01> -17505
00> 3798
01> -17491
00> 3816
01> -17502
00> 3834
01> -17521
00> 3826
01> -17517
00> 3804
01> -17494
00> 3806
01> -17476
00> 3828
01> -17477
00> 3843
01> -17496
00> 3831
01> -17501
00> 3808
01> -17481
00> 3803
01> -17462
00> 3828
01> -17471
00> 3851
01> -17492
00> 3850
01> -17490
00> 3830
01> -17473
00> 3837
01> -17461
00> 3857
01> -17469
00> 3864
01> -17496
00> 3856
01> -17502
00> 3835
01> -17486
00> 3838
01> -17467
00> 3858
01> -17481
00> 3876
01> -17506
00> 3872
01> -17513
00> 3856
01> -17495
00> 3853
01> -17476
00> 3871
01> -17481
00> 3886
01> -17499
00> 3882
01> -17503
00> 3863
01> -17484
00> 3853
01> -17473
00> 3870
01> -17486
00> 3886
01> -17500
00> 3878
01> -17497
00> 3858
01> -17471
00> 3859
01> -17457
00> 3882
01> -17467
00> 3894
01> -17491
00> 3883
01> -17492
00> 3864
01> -17470
00> 3861
01> -17451
00> 3880
01> -17465
00> 3901
01> -17482
00> 3896
01> -17482
00> 3873
01> -17462
00> 3865
01> -17444
00> 3884
01> -17446
00> 3903
01> -17466
00> 3899
01> -17479
00> 3879
01> -17464
00> 3878
01> -17432
00> 3898
01> -17435
00> 3913
01> -17464
00> 3899
01> -17471
00> 3877
01> -17452
00> 3874
01> -17429
00> 3894
01> -17432
00> 3907
01> -17461
00> 3899
01> -17473
00> 3878
01> -17456
00> 3867
01> -17428
00> 3891
01> -17432
00> 3918
01> -17445
00> 3909
01> -17456
00> 3883
01> -17438
00> 3875
01> -17421
00> 3898
01> -17424
00> 3913
01> -17447
00> 3902
01> -17455
00> 3888
01> -17432
00> 3883
01> -17418
00> 3901
01> -17427
00> 3918
01> -17445
00> 3906
01> -17456
00> 3889
01> -17434
00> 3884
01> -17421
00> 3899
01> -17422
00> 3918
01> -17436
00> 3910
01> -17444
00> 3889
01> -17426
00> 3883
01> -17411
00> 3904
01> -17412
00> 3920
01> -17425
00> 3911
01> -17431
00> 3893
01> -17413
00> 3886
01> -17397
00> 3898
01> -17407
00> 3918
01> -17423
00> 3908
01> -17430
00> 3889
01> -17417
00> 3888
01> -17401
00> 3907
01> -17400
00> 3923
01> -17416
00> 3917
01> -17416
00> 3901
01> -17394
00> 3899
01> -17377
00> 3920
01> -17381
00> 3933
01> -17413
00> 3920
01> -17423
00> 3901
01> -17403
00> 3902
01> -17384
00> 3918
01> -17381
00> 3939
01> -17392
00> 3931
01> -17395
00> 3909
01> -17369
00> 3897
01> -17351
00> 3914
01> -17362
00> 3949
01> -17371
00> 3955
01> -17362
00> 3915
01> -17336
00> 3907
01> -17305
00> 3932
01> -17284
00> 3936
01> -17299
00> 3928
01> -17296
00> 3914
01> -17262
00> 3907
01> -17223
00> 3918
01> -17215
00> 3935
01> -17226
00> 3936
01> -17221
00> 3921
01> -17191
00> 3912
01> -17161
00> 3925
01> -17146
00> 3951
01> -17147
00> 3952
01> -17136
00> 3934
01> -17097
00> 3926
01> -17053
00> 3947
01> -17025
00> 3967
01> -17012
00> 3958
01> -16995
00> 3938
01> -16934
00> 3933
01> -16868
00> 3956
01> -16823
00> 3976
01> -16801
00> 3980
01> -16772
00> 3970
01> -16706
00> 3955
01> -16641
00> 3982
01> -16599
00> 4015
01> -16580
00> 4013
01> -16554
00> 4006
01> -16487
00> 3996
01> -16416
00> 4010
01> -16363
00> 4046
01> -16326
00> 4076
01> -16266
00> 4070
01> -16192
00> 4072
01> -16112
00> 4101
01> -16054
00> 4133
01> -16022
00> 4149
01> -15966
00> 4147
01> -15891
00> 4154
01> -15827
00> 4185
01> -15787
00> 4206
01> -15780
00> 4201
01> -15789
00> 4186
01> -15779
00> 4173
01> -15756
00> 4184
01> -15758
00> 4203
01> -15781
00> 4190
01> -15799
00> 4165
01> -15788
00> 4143
01> -15784
00> 4156
01> -15794
00> 4174
01> -15817
00> 4166
01> -15817
00> 4141
01> -15796
00> 4125
01> -15775
00> 4134
01> -15776
00> 4148
01> -15791
00> 4138
01> -15804
00> 4116
01> -15794
00> 4108
01> -15776
00> 4124
01> -15772
00> 4139
01> -15786
00> 4129
01> -15792
00> 4103
01> -15771
00> 4091
01> -15737
00> 4107
01> -15727
00> 4126
01> -15744
00> 4117
01> -15744
00> 4086
01> -15724
00> 4073
01> -15699
00> 4085
01> -15686
00> 4099
01> -15687
00> 4093
01> -15685
00> 4074
01> -15661
00> 4066
01> -15641
00> 4076
01> -15648
00> 4091
01> -15669
00> 4086
01> -15669
00> 4068
01> -15637
00> 4059
01> -15605
00> 4067
01> -15594
00> 4088
01> -15606
00> 4085
01> -15612
00> 4061
01> -15585
00> 4046
01> -15546
00> 4058
01> -15516
00> 4081
01> -15507
00> 4083
01> -15493
00> 4068
01> -15458
00> 4063
01> -15413
00> 4078
01> -15378
00> 4092
01> -15370
00> 4086
01> -15349
00> 4065
01> -15305
00> 4056
01> -15248
00> 4070
01> -15214
00> 4084
01> -15207
00> 4084
01> -15185
00> 4061
01> -15141
00> 4049
01> -15081
00> 4059
01> -15029
00> 4079
01> -15000
00> 4079
01> -14962
00> 4056
01> -14901
00> 4048
01> -14830
00> 4064
01> -14775
00> 4082
01> -14740
00> 4079
01> -14699
00> 4054
01> -14640
00> 4043
01> -14560
00> 4061
01> -14491
00> 4091
01> -14446
00> 4091
01> -14397
00> 4063
01> -14324
00> 4049
01> -14243
00> 4065
01> -14176
00> 4089
01> -14126
00> 4086
01> -14074
00> 4069
01> -13997
00> 4059
01> -13903
00> 4074
01> -13829
00> 4094
01> -13781
00> 4090
01> -13726
00> 4071
01> -13637
00> 4065
01> -13542
00> 4076
01> -13467
00> 4088
01> -13406
00> 4086
01> -13342
00> 4069
01> -13258
00> 4055
01> -13157
00> 4061
01> -13087
00> 4079
01> -13033
00> 4080
01> -12962
00> 4064
01> -12869
00> 4054
01> -12770
00> 4075
01> -12691
00> 4094
01> -12643
00> 4084
01> -12585
00> 4064
01> -12496
00> 4053
01> -12397
00> 4069
01> -12319
00> 4089
01> -12261
00> 4096
01> -12192
00> 4079
01> -12104
00> 4063
01> -12004
00> 4077
01> -11927
00> 4106
01> -11876
00> 4112
01> -11816
00> 4109
01> -11724
00> 4089
01> -11646
00> 4114
01> -11575
00> 4140
01> -11535
00> 4143
01> -11495
00> 4138
01> -11420
00> 4128
01> -11332
00> 4154
01> -11262
00> 4177
01> -11203
00> 4181
01> -11150
00> 4181
01> -11071
00> 4191
01> -10979
00> 4211
01> -10906
00> 4240
01> -10857
00> 4254
01> -10817
00> 4255
01> -10743
00> 4253
01> -10677
00> 4268
01> -10635
00> 4290
01> -10623
00> 4288
01> -10615
00> 4261
01> -10576
00> 4242
01> -10541
00> 4254
01> -10528
00> 4273
01> -10546
00> 4268
01> -10565
00> 4243
01> -10551
00> 4226
01> -10539
00> 4224
01> -10557
00> 4231
01> -10587
00> 4231
01> -10617
00> 4199
01> -10646
00> 4179
01> -10652
00> 4189
01> -10676
00> 4204
01> -10720
00> 4186
01> -10758
00> 4156
01> -10778
00> 4131
01> -10802
00> 4138
01> -10839
00> 4146
01> -10897
00> 4136
01> -10962
00> 4100
01> -10999
00> 4071
01> -11020
00> 4073
01> -11051
00> 4087
01> -11113
00> 4079
01> -11172
00> 4053
01> -11212
00> 4033
01> -11232
00> 4034
01> -11272
00> 4042
01> -11336
00> 4037
01> -11394
00> 4016
01> -11435
00> 3995
01> -11464
00> 4003
01> -11512
00> 4021
01> -11572
00> 4018
01> -11632
00> 3997
01> -11668
00> 3977
01> -11696
00> 3969
01> -11748
00> 3982
01> -11816
00> 3988
01> -11879
00> 3979
01> -11916
00> 3968
01> -11931
00> 3964
01> -11966
00> 3983
01> -12032
00> 3975
01> -12097
00> 3955
01> -12131
00> 3956
01> -12144
00> 3961
01> -12176
00> 3969
01> -12237
00> 3979
01> -12294
00> 3955
01> -12336
00> 3952
01> -12357
00> 3965
01> -12387
00> 4010
01> -12419
00> 4002
01> -12465
00> 3977
01> -12498
00> 3972
01> -12487
00> 3968
01> -12503
00> 3981
01> -12540
00> 4014
01> -12541
00> 4023
01> -12509
00> 4018
01> -12468
00> 4051
01> -12431
00> 4123
01> -12401
00> 4153
01> -12394
00> 4142
01> -12375
00> 4150
01> -12331
00> 4189
01> -12304
00> 4231
01> -12317
00> 4229
01> -12362
00> 4223
01> -12379
00> 4218
01> -12380
00> 4229
01> -12402
00> 4238
01> -12467
00> 4236
01> -12524
00> 4218
01> -12553
00> 4211
01> -12570
00> 4219
01> -12602
00> 4235
01> -12665
00> 4234
01> -12723
00> 4209
01> -12779
00> 4190
01> -12810
00> 4190
01> -12847
00> 4214
01> -12909
00> 4223
01> -12971
00> 4208
01> -13006
00> 4188
01> -13039
00> 4176
01> -13090
00> 4192
01> -13159
00> 4190
01> -13226
00> 4162
01> -13267
00> 4150
01> -13294
00> 4155
01> -13342
00> 4178
01> -13411
00> 4183
01> -13478
00> 4144
01> -13527
00> 4119
01> -13556
00> 4126
01> -13592
00> 4141
01> -13657
00> 4145
01> -13725
00> 4115
01> -13772
00> 4093
01> -13797
00> 4095
01> -13836
00> 4110
01> -13892
00> 4118
01> -13944
00> 4101
01> -13987
00> 4073
01> -14017
00> 4067
01> -14054
00> 4088
01> -14109
00> 4096
01> -14167
00> 4079
01> -14202
00> 4063
01> -14216
00> 4063
01> -14243
00> 4069
01> -14294
00> 4070
01> -14354
00> 4054
01> -14388
00> 4040
01> -14401
00> 4047
01> -14426
00> 4063
01> -14474
00> 4066
01> -14525
00> 4043
01> -14546
00> 4024
01> -14550
00> 4036
01> -14567
00> 4049
01> -14619
00> 4051
01> -14667
00> 4034
01> -14691
00> 4007
01> -14693
00> 4029
01> -14704
00> 4039
01> -14749
00> 4054
01> -14797
00> 4047
01> -14814
00> 4028
01> -14826
00> 4029
01> -14846
00> 4042
01> -14878
00> 4040
01> -14925
00> 4043
01> -14936
00> 4028
01> -14927
00> 4033
01> -14944
00> 4057
01> -14987
00> 4070
01> -15021
00> 4048
01> -15037
00> 4025
01> -15046
00> 4036
01> -15067
00> 4068
01> -15103
00> 4080
01> -15141
00> 4064
01> -15147
00> 4069
01> -15131
00> 4080
01> -15136
00> 4112
01> -15171
00> 4115
01> -15219
00> 4094
01> -15237
00> 4076
01> -15236
00> 4099
01> -15232
00> 4116
01> -15269
00> 4131
01> -15316
00> 4109
01> -15338
00> 4079
01> -15349
00> 4082
01> -15351
00> 4124
01> -15362
00> 4130
01> -15402
00> 4104
01> -15438
00> 4089
01> -15441
00> 4083
01> -15457
00> 4098
01> -15488
00> 4114
01> -15530
00> 4108
01> -15549
00> 4082
01> -15549
00> 4067
01> -15551
00> 4097
01> -15581
00> 4126
01> -15611
00> 4129
01> -15615
00> 4071
01> -15639
00> 4088
01> -15644
00> 4109
01> -15663
00> 4128
01> -15708
00> 4106
01> -15732
00> 4086
01> -15722
00> 4078
01> -15723
00> 4097
01> -15757
00> 4106
01> -15802
00> 4106
01> -15808
00> 4093
01> -15799
00> 4092
01> -15803
00> 4099
01> -15850
00> 4103
01> -15869
00> 4079
01> -15876
00> 4051
01> -15882
00> 4086
01> -15895
00> 4114
01> -15917
00> 4125
01> -15939
00> 4089
01> -15954
00> 4071
01> -15956
00> 4086
01> -15946
00> 4093
01> -15984
00> 4108
01> -16009
00> 4068
01> -16064
00> 4061
01> -16061
00> 4082
01> -16063
00> 4105
01> -16077
00> 4098
01> -16118
00> 4061
01> -16141
00> 4066
01> -16120
00> 4057
01> -16108
00> 4076
01> -16147
00> 4113
01> -16177
00> 4113
01> -16172
00> 4046
01> -16163
00> 4059
01> -16156
00> 4103
01> -16195
00> 4105
01> -16231
00> 4111
01> -16246
00> 4084
01> -16212
00> 4098
01> -16212
00> 4139
01> -16241
00> 4109
01> -16271
00> 4079
01> -16299
00> 4096
01> -16266
00> 4074
01> -16269
00> 4138
01> -16304
00> 4127
01> -16354
00> 4110
01> -16359
00> 4068
01> -16365
00> 4074
01> -16352
00> 4093
01> -16367
00> 4091
01> -16399
00> 4081
01> -16369
00> 4101
01> -16401
00> 4058
01> -16422
00> 4094
01> -16412
00> 4122
01> -16417
00> 4127
01> -16462
00> 4076
01> -16485
00> 4084
01> -16472
00> 4098
01> -16492
00> 4086
01> -16515
00> 4087
01> -16527
00> 4061
01> -16516
00> 4066
01> -16476
00> 4087
01> -16512
00> 4126
01> -16558
00> 4109
01> -16566
00> 4086
01> -16559
00> 4084
01> -16544
00> 4084
01> -16573
00> 4094
01> -16613
00> 4064
01> -16629
00> 4083
01> -16599
00> 4071
01> -16611
00> 4110
01> -16609
00> 4074
01> -16596
00> 4121
01> -16661
00> 4092
01> -16658
00> 4081
01> -16671
00> 4093
01> -16664
00> 4103
01> -16709
00> 4098
01> -16732
00> 4022
01> -16715
00> 4040
01> -16708
00> 4134
01> -16718
00> 4134
01> -16729
00> 4097
01> -16762
00> 4084
01> -16732
00> 4057
01> -16728
00> 4097
01> -16745
00> 4111
01> -16769
00> 4092
01> -16782
00> 4089
01> -16777
00> 4072
01> -16765
00> 4065
01> -16749
00> 4085
01> -16801
00> 4093
01> -16829
00> 4063
01> -16831
00> 4076
01> -16819
00> 4093
01> -16806
00> 4110
01> -16856
00> 4101
01> -16854
00> 4087
01> -16827
00> 4106
01> -16849
00> 4082
01> -16849
00> 4056
01> -16882
00> 4031
01> -16882
00> 4094
01> -16847
00> 4106
01> -16857
00> 4098
01> -16893
00> 4105
01> -16907
00> 4099
01> -16867
00> 4074
01> -16911
00> 4069
01> -16919
00> 4056
01> -16902
00> 4082
01> -16939
00> 4141
01> -16946
00> 4069
01> -16934
00> 4074
01> -16927
00> 4081
01> -16925
00> 4111
01> -16969
00> 4097
01> -16974
00> 4076
01> -16931
00> 4087
01> -16931
00> 4114
01> -16947
00> 4032
01> -16981
00> 4048
01> -16992
00> 4114
01> -16988
00> 4066
01> -16982
00> 4098
01> -16972
00> 4118
01> -16998
00> 4087
01> -16988
00> 4067
01> -16985
00> 4083
01> -16996
00> 4053
01> -17011
00> 4113
01> -17012
00> 4143
01> -17013
00> 4087
01> -17028
00> 4065
01> -17032
00> 4061
01> -17014
00> 4109
01> -17044
00> 4101
01> -17041
00> 4036
01> -17038
00> 4046
01> -17025
00> 4128
01> -17023
00> 4093
01> -17102
00> 4129
01> -17075
00> 4122
01> -17078
00> 4076
01> -17058
00> 4086
01> -17047
00> 4108
01> -17097
00> 4108
01> -17103
00> 4089
01> -17071
00> 4084
01> -17067
00> 4094
01> -17052
00> 4036
01> -17099
00> 4093
01> -17126
00> 4106
01> -17089
00> 4099
01> -17075
00> 4125
01> -17066
00> 4139
01> -17124
00> 4086
01> -17153
00> 4048
01> -17131
00> 4057
01> -17101
00> 4075
01> -17101
00> 4086
01> -17156
00> 4095
01> -17168
00> 4066
01> -17152
00> 4067
01> -17098
00> 4121
01> -17114
00> 4096
01> -17154
00> 4087
01> -17187
00> 4086
01> -17145
00> 4086
01> -17124
00> 4075
01> -17126
00> 4080
01> -17161
00> 4122
01> -17154
00> 4106
01> -17142
00> 4111
01> -17092
00> 4156
01> -17066
00> 4111
01> -17067
00> 4112
01> -17065
00> 4146
01> -17054
00> 4118
01> -17047
00> 4131
01> -17028
00> 4169
01> -17004
00> 4214
01> -16998
00> 4176
01> -16939
00> 4198
01> -16867
00> 4214
01> -16847
00> 4188
01> -16818
00> 4264
01> -16772
00> 4259
01> -16719
00> 4243
01> -16654
00> 4273
01> -16625
00> 4293
01> -16604
00> 4338
01> -16607
00> 4283
01> -16586
00> 4293
01> -16504
00> 4315
01> -16537
00> 4302
01> -16631
00> 4280
01> -16669
00> 4201
01> -16624
00> 4191
01> -16646
00> 4221
01> -16703
00> 4249
01> -16730
00> 4203
01> -16768
00> 4139
01> -16801
00> 4141
01> -16851
00> 4147
01> -16859
00> 4188
01> -16915
00> 4147
01> -16954
00> 4093
01> -16967
00> 4055
01> -16967
00> 4092
01> -17028
00> 4093
01> -17036
00> 4068
01> -17044
00> 4111
01> -17057
00> 4088
01> -17051
00> 4069
01> -17107
00> 4084
01> -17125
00> 4096
01> -17127
00> 4066
01> -17141
00> 4004
01> -17156
00> 4016
01> -17141
00> 4076
01> -17171
00> 4056
01> -17220
00> 4035
01> -17184
00> 4028
01> -17174
00> 4071
01> -17199
00> 4074
01> -17224
00> 4051
01> -17240
00> 4020
01> -17227
00> 3963
01> -17219
00> 4046
01> -17194
00> 4048
01> -17239
00> 4049
01> -17294
00> 4054
01> -17269
00> 3991
01> -17242
00> 4018
01> -17296
00> 4041
01> -17304
00> 4053
01> -17306
00> 4014
01> -17311
00> 3957
01> -17286
00> 4008
01> -17252
00> 4074
01> -17299
00> 4047
01> -17348
00> 4022
01> -17339
00> 3988
01> -17303
00> 4011
01> -17274
00> 4032
01> -17335
00> 4074
01> -17336
00> 4033
01> -17312
00> 4003
01> -17282
00> 4022
01> -17291
00> 4011
01> -17312
00> 4053
01> -17327
00> 4047
01> -17334
00> 4000
01> -17337
00> 4047
01> -17302
00> 4086
01> -17327
00> 4068
01> -17336
00> 3991
01> -17329
00> 3991
01> -17314
00> 3989
01> -17284
00> 4015
01> -17336
00> 4071
01> -17347
00> 4028
01> -17319
00> 4026
01> -17325
00> 4039
01> -17308
00> 4078
01> -17334
00> 4049
01> -17326
00> 4049
01> -17324
00> 4028
01> -17319
00> 4015
01> -17332
00> 4030
01> -17371
00> 4037
01> -17367
00> 3996
01> -17326
00> 4035
01> -17327
00> 4025
01> -17320
00> 4070
01> -17349
00> 4077
01> -17374
00> 4030
01> -17340
00> 4034
01> -17327
00> 4049
01> -17329
00> 4076
01> -17346
00> 4022
01> -17389
00> 4022
01> -17363
00> 4029
01> -17311
00> 4006
01> -17279
00> 4044
01> -17352
00> 4081
01> -17391
00> 4061
01> -17347
00> 4024
01> -17316
00> 4031
01> -17357
00> 4034
01> -17362
00> 4064
01> -17364
00> 4046
01> -17350
00> 4030
01> -17331
00> 4029
01> -17339
00> 4017
01> -17333
00> 4032
01> -17336
00> 4061
01> -17377
00> 4030
01> -17341
00> 4064
01> -17342
00> 4051
01> -17377
00> 4045
01> -17396
00> 4033
01> -17343
00> 4006
01> -17366
00> 4059
01> -17343
00> 4068
01> -17356
00> 4025
01> -17346
00> 4027
01> -17353
00> 4044
01> -17359
00> 4022
01> -17330
00> 4076
01> -17361
00> 4085
01> -17365
00> 4059
01> -17352
00> 4014
01> -17320
00> 4041
01> -17346
00> 4067
01> -17355
00> 4061
01> -17337
00> 4042
01> -17311
00> 4024
01> -17316
00> 4037
01> -17318
00> 4031
01> -17331
00> 4070
01> -17327
00> 4107
01> -17280
00> 4051
01> -17310
00> 4044
01> -17277
00> 4101
01> -17274
00> 4099
01> -17297
00> 4079
01> -17272
00> 4037
01> -17278
00> 4070
01> -17261
00> 4133
01> -17235
00> 4092
01> -17233
00> 4130
01> -17228
00> 4093
01> -17168
00> 4124
01> -17143
00> 4163
01> -17141
00> 4190
01> -17119
00> 4138
01> -17054
00> 4119
01> -17032
00> 4171
01> -16978
00> 4229
01> -16921
00> 4245
01> -16857
00> 4244
01> -16775
00> 4253
01> -16684
00> 4294
01> -16679
00> 4303
01> -16682
00> 4340
01> -16624
00> 4348
01> -16549
00> 4298
01> -16550
00> 4333
01> -16544
00> 4366
01> -16539
00> 4312
01> -16567
00> 4323
01> -16548
00> 4301
01> -16514
00> 4317
01> -16537
00> 4354
01> -16569
00> 4321
01> -16622
00> 4278
01> -16615
00> 4268
01> -16646
00> 4268
01> -16676
00> 4249
01> -16714
00> 4188
01> -16767
00> 4259
01> -16680
00> 4275
01> -16699
00> 4240
01> -16770
00> 4234
01> -16794
00> 4238
01> -16799
00> 4213
01> -16819
00> 4149
01> -16800
00> 4229
01> -16846
00> 4234
01> -16857
00> 4203
01> -16894
00> 4206
01> -16893
00> 4183
01> -16893
00> 4138
01> -16892
00> 4193
01> -16929
00> 4233
01> -16959
00> 4154
01> -16952
00> 4136
01> -16950
00> 4174
01> -16939
00> 4161
01> -16985
00> 4169
01> -17026
00> 4178
01> -17001
00> 4144
01> -17012
00> 4132
01> -17010
00> 4137
01> -17044
00> 4150
01> -17074
00> 4126
01> -17074
00> 4099
01> -17076
00> 4125
01> -17052
00> 4134
01> -17072
00> 4108
01> -17127
00> 4149
01> -17110
00> 4101
01> -17039
00> 4116
01> -17079
00> 4133
01> -17134
00> 4128
01> -17153
00> 4083
01> -17113
00> 4099
01> -17106
00> 4128
01> -17100
00> 4153
01> -17107
00> 4144
01> -17103
00> 4101
01> -17095
00> 4100
01> -17065
00> 4154
01> -17060
00> 4159
01> -17042
00> 4176
01> -17059
00> 4173
01> -16985
00> 4163
01> -16940
00> 4213
01> -16907
00> 4266
01> -16851
00> 4248
01> -16830
00> 4248
01> -16742
00> 4229
01> -16636
00> 4369
01> -16529
00> 4394
01> -16482
00> 4365
01> -16452
00> 4401
01> -16425
00> 4443
01> -16326
00> 4461
01> -16286
00> 4474
01> -16297
00> 4479
01> -16344
00> 4474
01> -16320
00> 4433
01> -16330
00> 4461
01> -16335
00> 4470
01> -16377
00> 4468
01> -16387
00> 4409
01> -16442
00> 4353
01> -16439
00> 4391
01> -16461
00> 4345
01> -16536
00> 4398
01> -16590
00> 4393
01> -16604
00> 4323
01> -16605
00> 4313
01> -16626
00> 4351
01> -16684
00> 4351
01> -16709
00> 4323
01> -16716
00> 4296
01> -16736
00> 4282
01> -16738
00> 4282
01> -16794
00> 4278
01> -16842
00> 4253
01> -16841
00> 4284
01> -16841
00> 4241
01> -16869
00> 4280
01> -16880
00> 4286
01> -16901
00> 4232
01> -16922
00> 4209
01> -16922
00> 4236
01> -16914
00> 4251
01> -16951
00> 4251
01> -16973
00> 4209
01> -16971
00> 4198
01> -16971
00> 4199
01> -16981
00> 4237
01> -17016
00> 4218
01> -17044
00> 4199
01> -17039
00> 4194
01> -17031
00> 4191
01> -17041
00> 4207
01> -17072
00> 4197
01> -17105
00> 4171
01> -17111
00> 4164
01> -17075
00> 4170
01> -17076
00> 4180
01> -17103
00> 4181
01> -17137
00> 4165
01> -17123
00> 4148
01> -17106
00> 4153
01> -17122
00> 4179
01> -17142
00> 4183
01> -17163
00> 4153
01> -17157
00> 4129
01> -17129
00> 4146
01> -17125
00> 4162
01> -17154
00> 4164
01> -17173
00> 4146
01> -17167
00> 4131
01> -17146
00> 4133
01> -17135
00> 4154
01> -17147
00> 4164
01> -17165
00> 4152
01> -17161
00> 4132
01> -17144
00> 4139
01> -17133
00> 4164
01> -17149
00> 4159
01> -17169
00> 4136
01> -17168
00> 4121
01> -17147
00> 4129
01> -17134
00> 4153
01> -17148
00> 4172
01> -17157
00> 4151
01> -17154
00> 4123
01> -17145
00> 4131
01> -17134
00> 4156
01> -17152
00> 4169
01> -17169
00> 4154
01> -17164
00> 4143
01> -17138
00> 4141
01> -17134
00> 4171
01> -17149
00> 4172
01> -17169
00> 4156
01> -17169
00> 4135
01> -17154
00> 4140
01> -17142
00> 4165
01> -17142
00> 4169
01> -17176
00> 4147
01> -17182
00> 4126
01> -17167
00> 4144
01> -17152
00> 4164
01> -17162
00> 4173
01> -17189
00> 4149
01> -17188
00> 4133
01> -17169
00> 4142
01> -17166
00> 4159
01> -17184
00> 4147
01> -17192
00> 4163
01> -17184
00> 4143
01> -17176
00> 4148
01> -17164
00> 4168
01> -17179
00> 4175
01> -17197
00> 4154
01> -17186
00> 4128
01> -17155
00> 4126
01> -17156
00> 4163
01> -17182
00> 4193
01> -17185
00> 4164
01> -17188
00> 4146
01> -17169
00> 4144
01> -17156
00> 4159
01> -17171
00> 4163
01> -17184
00> 4149
01> -17182
00> 4134
01> -17157
00> 4143
01> -17156
00> 4169
01> -17174
00> 4186
01> -17185
00> 4164
01> -17177
00> 4142
01> -17157
00> 4141
01> -17152
00> 4154
01> -17177
00> 4158
01> -17197
00> 4146
01> -17187
00> 4155
01> -17164
00> 4138
01> -17167
00> 4141
01> -17184
00> 4154
01> -17219
00> 4127
01> -17226
00> 4097
01> -17222
00> 4093
01> -17241
00> 4122
01> -17272
00> 4111
01> -17286
00> 4089
01> -17280
00> 4076
01> -17266
00> 4066
01> -17268
00> 4101
01> -17284
00> 4116
01> -17289
00> 4083
01> -17304
00> 4061
01> -17287
00> 4065
01> -17267
00> 4090
01> -17286
00> 4111
01> -17313
00> 4108
01> -17311
00> 4063
01> -17291
00> 4047
01> -17290
00> 4089
01> -17297
00> 4113
01> -17304
00> 4101
01> -17309
00> 4074
01> -17294
00> 4069
01> -17286
00> 4096
01> -17292
00> 4104
01> -17303
00> 4089
01> -17311
00> 4063
01> -17301
00> 4084
01> -17280
00> 4118
01> -17282
00> 4125
01> -17299
00> 4118
01> -17287
00> 4091
01> -17263
00> 4093
01> -17255
00> 4130
01> -17274
00> 4117
01> -17279
00> 4109
01> -17282
00> 4094
01> -17251
00> 4097
01> -17244
00> 4111
01> -17273
00> 4119
01> -17292
00> 4091
01> -17298
00> 4103
01> -17276
00> 4112
01> -17253
00> 4128
01> -17272
00> 4133
01> -17292
00> 4114
01> -17295
00> 4091
01> -17274
00> 4093
01> -17254
00> 4118
01> -17257
00> 4130
01> -17281
00> 4118
01> -17284
00> 4098
01> -17259
00> 4103
01> -17242
00> 4124
01> -17263
00> 4125
01> -17293
00> 4108
01> -17291
00> 4100
01> -17265
00> 4111
01> -17236
00> 4089
01> -17256
00> 4125
01> -17272
00> 4136
01> -17266
00> 4108
01> -17246
00> 4093
01> -17245
00> 4116
01> -17261
00> 4134
01> -17287
00> 4121
01> -17287
00> 4103
01> -17262
00> 4106
01> -17248
00> 4121
01> -17256
00> 4140
01> -17274
00> 4127
01> -17281
00> 4093
01> -17254
00> 4095
01> -17232
00> 4144
01> -17242
00> 4136
01> -17280
00> 4114
01> -17290
00> 4104
01> -17274
00> 4107
01> -17263
00> 4132
01> -17290
00> 4153
01> -17310
00> 4146
01> -17309
00> 4124
01> -17299
00> 4123
01> -17297
00> 4151
01> -17314
00> 4180
01> -17343
00> 4172
01> -17348
00> 4153
01> -17327
00> 4159
01> -17311
00> 4178
01> -17306
00> 4219
01> -17332
00> 4181
01> -17347
00> 4149
01> -17331
00> 4158
01> -17328
00> 4185
01> -17339
00> 4196
01> -17352
00> 4186
01> -17355
00> 4165
01> -17336
00> 4158
01> -17329
00> 4185
01> -17337
00> 4195
01> -17356
00> 4171
01> -17356
00> 4163
01> -17331
00> 4154
01> -17341
00> 4198
01> -17347
00> 4211
01> -17367
00> 4163
01> -17363
00> 4141
01> -17359
00> 4179
01> -17319
00> 4188
01> -17336
00> 4196
01> -17367
00> 4178
01> -17373
00> 4159
01> -17351
00> 4151
01> -17330
00> 4189
01> -17340
00> 4196
01> -17361
00> 4194
01> -17367
00> 4173
01> -17347
00> 4171
01> -17338
00> 4157
01> -17364
00> 4173
01> -17381
00> 4192
01> -17376
00> 4164
01> -17349
00> 4170
01> -17327
00> 4204
01> -17359
00> 4207
01> -17382
00> 4194
01> -17385
00> 4173
01> -17366
00> 4164
01> -17355
00> 4178
01> -17362
00> 4201
01> -17368
00> 4181
01> -17377
00> 4176
01> -17374
00> 4166
01> -17362
00> 4176
01> -17369
00> 4200
01> -17394
00> 4189
01> -17391
00> 4164
01> -17376
00> 4163
01> -17361
00> 4201
01> -17381
00> 4197
01> -17400
00> 4167
01> -17405
00> 4172
01> -17379
00> 4176
01> -17349
00> 4196
01> -17371
00> 4214
01> -17399
00> 4208
01> -17407
00> 4161
01> -17397
00> 4149
01> -17373
00> 4189
01> -17363
00> 4189
01> -17383
00> 4159
01> -17388
00> 4122
01> -17366
00> 4118
01> -17346
00> 4123
01> -17340
00> 4133
01> -17377
00> 4120
01> -17382
00> 4086
01> -17365
00> 4080
01> -17349
00> 4094
01> -17352
00> 4108
01> -17376
00> 4103
01> -17389
00> 4091
01> -17381
00> 4083
01> -17355
00> 4097
01> -17358
00> 4117
01> -17381
00> 4101
01> -17394
00> 4071
01> -17377
00> 4074
01> -17354
00> 4106
01> -17366
00> 4111
01> -17396
00> 4096
01> -17407
00> 4078
01> -17394
00> 4076
01> -17376
00> 4093
01> -17381
00> 4104
01> -17399
00> 4096
01> -17410
00> 4081
01> -17393
00> 4070
01> -17365
00> 4096
01> -17366
00> 4111
01> -17391
00> 4099
01> -17397
00> 4086
01> -17399
00> 4079
01> -17389
00> 4098
01> -17392
00> 4111
01> -17421
00> 4094
01> -17434
00> 4078
01> -17410
00> 4093
01> -17388
00> 4115
01> -17391
00> 4126
01> -17412
00> 4114
01> -17423
00> 4089
01> -17403
00> 4076
01> -17385
00> 4108
01> -17404
00> 4119
01> -17424
00> 4110
01> -17435
00> 4091
01> -17414
00> 4086
01> -17394
00> 4098
01> -17396
00> 4103
01> -17421
00> 4097
01> -17434
00> 4094
01> -17411
00> 4087
01> -17393
00> 4104
01> -17396
00> 4121
01> -17429
00> 4110
01> -17446
00> 4077
01> -17424
00> 4071
01> -17402
00> 4098
01> -17402
00> 4129
01> -17432
00> 4121
01> -17442
00> 4088
01> -17428
00> 4083
01> -17411
00> 4103
01> -17416
00> 4125
01> -17432
00> 4117
01> -17450
00> 4080
01> -17437
00> 4076
01> -17415
00> 4094
01> -17407
00> 4123
01> -17445
00> 4108
01> -17459
00> 4079
01> -17445
00> 4078
01> -17431
00> 4100
01> -17437
00> 4118
01> -17459
00> 4106
01> -17468
00> 4077
01> -17449
00> 4066
01> -17434
00> 4097
01> -17448
00> 4117
01> -17466
00> 4104
01> -17479
00> 4077
01> -17462
00> 4084
01> -17449
00> 4109
01> -17454
00> 4116
01> -17479
00> 4108
01> -17489
00> 4092
01> -17457
00> 4080
01> -17439
00> 4106
01> -17451
00> 4126
01> -17472
00> 4119
01> -17481
00> 4101
01> -17461
00> 4101
01> -17430
00> 4129
01> -17424
00> 4154
01> -17422
00> 4139
01> -17441
00> 4115
01> -17435
00> 4129
01> -17397
00> 4165
01> -17359
00> 4170
01> -17374
00> 4182
01> -17357
00> 4204
01> -17293
00> 4189
01> -17247
00> 4204
01> -17204
00> 4236
01> -17185
00> 4243
01> -17142
00> 4269
01> -17045
00> 4296

00> 4332
01> -16898
00> 4373
01> -16859
00> 4388
01> -16816
00> 4386
01> -16762
00> 4380
01> -16719
00> 4393
01> -16689
00> 4419
01> -16711
00> 4418
01> -16729
00> 4383
01> -16724
00> 4366
01> -16717
00> 4380
01> -16736
00> 4388
01> -16774
00> 4372
01> -16808
00> 4334
01> -16819
00> 4315
01> -16831
00> 4318
01> -16861
00> 4318
01> -16902
00> 4313
01> -16942
00> 4295
01> -16948
00> 4255
01> -16945
00> 4268
01> -16965
00> 4287
01> -17004
00> 4276
01> -17027
00> 4235
01> -17028
00> 4224
01> -17029
00> 4226
01> -17041
00> 4251
01> -17096
00> 4244
01> -17131
00> 4208
01> -17130
00> 4187
01> -17126
00> 4209
01> -17137
00> 4239
01> -17180
00> 4225
01> -17212
00> 4186
01> -17212
00> 4170
01> -17207
00> 4187
01> -17222
00> 4206
01> -17254
00> 4193
01> -17269
00> 4160
01> -17245
00> 4153
01> -17252
00> 4170
01> -17267
00> 4186
01> -17300
00> 4179
01> -17324
00> 4159
01> -17317
00> 4148
01> -17297
00> 4162
01> -17306
00> 4186
01> -17334
00> 4184
01> -17357
00> 4150
01> -17354
00> 4132
01> -17331
00> 4155
01> -17332
00> 4173
01> -17367
00> 4168
01> -17383
00> 4141
01> -17382
00> 4121
01> -17372
00> 4140
01> -17370
00> 4169
01> -17393
00> 4159
01> -17411
00> 4122
01> -17393
00> 4119
01> -17381
00> 4130
01> -17377
00> 4148
01> -17405
00> 4154
01> -17431
00> 4123
01> -17424
00> 4115
01> -17404
00> 4127
01> -17410
00> 4149
01> -17434
00> 4148
01> -17445
00> 4121
01> -17431
00> 4116
01> -17424
00> 4133
01> -17422
00> 4150
01> -17444
00> 4147
01> -17457
00> 4136
01> -17442
00> 4111
01> -17424
00> 4119
01> -17436
00> 4144
01> -17461
00> 4134
01> -17473
00> 4123
01> -17461
00> 4110
01> -17450
00> 4114
01> -17457
00> 4130
01> -17487
00> 4132
01> -17497
00> 4114
01> -17491
00> 4098
01> -17472
00> 4111
01> -17474
00> 4139
01> -17497
00> 4137
01> -17517
00> 4107
01> -17515
00> 4099
01> -17492
00> 4126
01> -17492
00> 4143
01> -17518
00> 4139
01> -17536
00> 4109
01> -17524
00> 4099
01> -17507
00> 4117
01> -17503
00> 4138
01> -17532
00> 4132
01> -17552
00> 4102
01> -17543
00> 4096
01> -17524
00> 4109
01> -17531
00> 4131
01> -17552
00> 4129
01> -17563
00> 4109
01> -17557
00> 4094
01> -17539
00> 4106
01> -17542
00> 4135
01> -17567
00> 4134
01> -17581
00> 4115
01> -17569
00> 4099
01> -17549
00> 4113
01> -17546
00> 4131
01> -17573
00> 4133
01> -17596
00> 4120
01> -17585
00> 4110
01> -17565
00> 4114
01> -17564
00> 4119
01> -17594
00> 4129
01> -17598
00> 4123
01> -17577
00> 4126
01> -17549
00> 4134
01> -17547
00> 4153
01> -17565
00> 4166
01> -17557
00> 4151
01> -17541
00> 4143
01> -17521
00> 4164
01> -17502
00> 4189
01> -17477
00> 4201
01> -17457
00> 4191
01> -17406
00> 4184
01> -17357
00> 4214
01> -17311
00> 4250
01> -17272
00> 4291
01> -17209
00> 4284
01> -17131
00> 4298
01> -17036
00> 4350
01> -16959
00> 4406
01> -16915
00> 4436
01> -16883
00> 4419
01> -16826
00> 4428
01> -16764
00> 4463
01> -16728
00> 4461
01> -16731
00> 4468
01> -16727
00> 4449
01> -16724
00> 4441
01> -16714
00> 4446
01> -16722
00> 4457
01> -16751
00> 4451
01> -16781
00> 4419
01> -16791
00> 4384
01> -16800
00> 4371
01> -16830
00> 4389
01> -16872
00> 4367
01> -16917
00> 4331
01> -16940
00> 4315
01> -16949
00> 4311
01> -16976
00> 4329
01> -17017
00> 4325
01> -17056
00> 4266
01> -17074
00> 4246
01> -17075
00> 4253
01> -17100
00> 4267
01> -17156
00> 4261
01> -17193
00> 4239
01> -17201
00> 4211
01> -17200
00> 4214
01> -17216
00> 4226
01> -17257
00> 4226
01> -17289
00> 4211
01> -17291
00> 4176
01> -17286
00> 4173
01> -17299
00> 4197
01> -17333
00> 4198
01> -17364
00> 4166
01> -17372
00> 4149
01> -17366
00> 4156
01> -17381
00> 4169
01> -17412
00> 4172
01> -17439
00> 4136
01> -17440
00> 4108
01> -17432
00> 4128
01> -17446
00> 4147
01> -17473
00> 4139
01> -17501
00> 4109
01> -17502
00> 4096
01> -17493
00> 4107
01> -17510
00> 4128
01> -17541
00> 4130
01> -17564
00> 4103
01> -17561
00> 4088
01> -17541
00> 4089
01> -17546
00> 4113
01> -17572
00> 4112
01> -17591
00> 4086
01> -17592
00> 4072
01> -17579
00> 4081
01> -17581
00> 4100
01> -17608
00> 4104
01> -17626
00> 4084
01> -17625
00> 4071
01> -17615
00> 4071
01> -17616
00> 4090
01> -17634
00> 4098
01> -17659
00> 4079
01> -17656
00> 4063
01> -17631
00> 4069
01> -17632
00> 4095
01> -17659
00> 4098
01> -17675
00> 4066
01> -17679
00> 4054
01> -17657
00> 4071
01> -17644
00> 4086
01> -17671
00> 4084
01> -17691
00> 4067
01> -17686
00> 4054
01> -17675
00> 4074
01> -17672
00> 4101
01> -17687
00> 4103
01> -17711
00> 4081
01> -17700
00> 4066
01> -17674
00> 4081
01> -17670
00> 4096
01> -17698
00> 4099
01> -17719
00> 4081
01> -17709
00> 4073
01> -17693
00> 4089
01> -17689
00> 4107
01> -17704
00> 4103
01> -17724
00> 4084
01> -17719
00> 4067
01> -17701
00> 4078
01> -17696
00> 4103
01> -17716
00> 4107
01> -17738
00> 4084
01> -17732
00> 4063
01> -17711
00> 4068
01> -17709
00> 4098
01> -17734
00> 4103
01> -17758
00> 4082
01> -17756
00> 4071
01> -17729
00> 4079
01> -17717
00> 4099
01> -17730
00> 4109
01> -17754
00> 4087
01> -17757
00> 4072
01> -17734
00> 4071
01> -17727
00> 4093
01> -17741
00> 4100
01> -17757
00> 4085
01> -17755
00> 4065
01> -17736
00> 4074
01> -17730
00> 4093
01> -17752
00> 4106
01> -17769
00> 4091
01> -17763
00> 4069
01> -17746
00> 4084
01> -17757
00> 4109
01> -17787
00> 4115
01> -17824
00> 4088
01> -17827
00> 4068
01> -17805
00> 4081
01> -17801
00> 4100
01> -17824
00> 4101
01> -17851
00> 4087
01> -17849
00> 4072
01> -17834
00> 4074
01> -17825
00> 4098
01> -17841
00> 4104
01> -17855
00> 4089
01> -17847
00> 4075
01> -17827
00> 4079
01> -17819
00> 4104
01> -17841
00> 4113
01> -17857
00> 4091
01> -17852
00> 4066
01> -17832
00> 4083
01> -17812
00> 4106
01> -17826
00> 4113
01> -17851
00> 4097
01> -17846
00> 4079
01> -17829
00> 4089
01> -17820
00> 4106
01> -17837
00> 4112
01> -17850
00> 4096
01> -17843
00> 4081
01> -17826
00> 4081
01> -17826
00> 4105
01> -17847
00> 4111
01> -17869
00> 4094
01> -17865
00> 4078
01> -17839
00> 4090
01> -17824
00> 4111
01> -17847
00> 4114
01> -17870
00> 4091
01> -17861
00> 4071
01> -17842
00> 4076
01> -17829
00> 4109
01> -17839
00> 4116
01> -17862
00> 4098
01> -17863
00> 4075
01> -17851
00> 4084
01> -17839
00> 4106
01> -17861
00> 4108
01> -17886
00> 4094
01> -17877
00> 4081
01> -17850
00> 4082
01> -17833
00> 4106
01> -17852
00> 4114
01> -17879
00> 4099
01> -17877
00> 4076
01> -17861
00> 4074
01> -17847
00> 4103
01> -17859
00> 4113
01> -17884
00> 4097
01> -17883
00> 4078
01> -17863
00> 4082
01> -17854
00> 4108
01> -17868
00> 4119
01> -17890
00> 4104
01> -17888
00> 4088
01> -17871
00> 4089
01> -17866
00> 4111
01> -17877
00> 4114
01> -17896
00> 4096
01> -17889
00> 4074
01> -17867
00> 4079
01> -17862
00> 4106
01> -17874
00> 4114
01> -17895
00> 4095
01> -17900
00> 4078
01> -17887
00> 4081
01> -17872
00> 4111
01> -17882
00> 4124
01> -17903
00> 4109
01> -17898
00> 4086
01> -17877
00> 4086
01> -17864
00> 4108
01> -17882
00> 4121
01> -17906
00> 4106
01> -17906
00> 4093
01> -17879
00> 4094
01> -17864
00> 4108
01> -17883
00> 4119
01> -17901
00> 4104
01> -17899
00> 4082
01> -17876
00> 4086
01> -17864
00> 4106
01> -17879
00> 4123
01> -17899
00> 4104
01> -17904
00> 4083
01> -17886
00> 4086
01> -17867
00> 4111
01> -17881
00> 4124
01> -17902
00> 4102
01> -17903
00> 4078
01> -17886
00> 4086
01> -17869
00> 4108
01> -17888
00> 4117
01> -17909
00> 4103
01> -17905
00> 4084
01> -17886
00> 4082
01> -17872
00> 4106
01> -17889
00> 4114
01> -17910
00> 4096
01> -17911
00> 4078
01> -17886
00> 4079
01> -17871
00> 4106
01> -17887
00> 4113
01> -17916
00> 4097
01> -17913
00> 4075
01> -17890
00> 4084
01> -17886
00> 4114
01> -17896
00> 4110
01> -17926
00> 4084
01> -17927
00> 4059
01> -17903
00> 4059
01> -17891
00> 4073
01> -17909
00> 4076
01> -17928
00> 4059
01> -17925
00> 4028
01> -17910
00> 4024
01> -17895
00> 4038
01> -17901
00> 4042
01> -17925
00> 4033
01> -17926
00> 4014
01> -17901
00> 4011
01> -17890
00> 4026
01> -17898
00> 4043
01> -17914
00> 4028
01> -17926
00> 4009
01> -17913
00> 4013
01> -17900
00> 4028
01> -17917
00> 4041
01> -17941
00> 4024
01> -17942
00> 4001
01> -17922
00> 4004
01> -17909
00> 4026
01> -17924
00> 4036
01> -17949
00> 4015
01> -17959
00> 3998
01> -17936
00> 4002
01> -17919
00> 4024
01> -17935
00> 4034
01> -17959
00> 4022
01> -17951
00> 4001
01> -17932
00> 3998
01> -17931
00> 4023
01> -17944
00> 4035
01> -17959
00> 4024
01> -17962
00> 4009
01> -17946
00> 4005
01> -17934
00> 4021
01> -17945
00> 4024
01> -17961
00> 4011
01> -17966
00> 3996
01> -17947
00> 3996
01> -17940
00> 4012
01> -17953
00> 4023
01> -17969
00> 4010
01> -17970
00> 3987
01> -17951
00> 3993
01> -17934
00> 4021
01> -17947
00> 4033
01> -17978
00> 4018
01> -17982
00> 3996
01> -17948
00> 3998
01> -17929
00> 4016
01> -17943
00> 4026
01> -17976
00> 4015
01> -17983
00> 3995
01> -17959
00> 3998
01> -17936
00> 4024
01> -17944
00> 4046
01> -17973
00> 4039
01> -17976
00> 4008
01> -17954
00> 4012
01> -17931
00> 4049
01> -17932
00> 4070
01> -17945
00> 4061
01> -17936
00> 4048
01> -17904
00> 4064
01> -17884
00> 4089
01> -17898
00> 4118
01> -17912
00> 4109
01> -17909
00> 4083
01> -17882
00> 4094
01> -17867
00> 4114
01> -17880
00> 4123
01> -17911
00> 4113
01> -17921
00> 4098
01> -17897
00> 4098
01> -17881
00> 4118
01> -17884
00> 4129
01> -17900
00> 4115
01> -17907
00> 4094
01> -17888
00> 4094
01> -17871
00> 4116
01> -17885
00> 4128
01> -17911
00> 4114
01> -17921
00> 4098
01> -17902
00> 4100
01> -17890
00> 4122
01> -17902
00> 4138
01> -17921
00> 4127
01> -17919
00> 4104
01> -17899
00> 4108
01> -17884
00> 4128
01> -17889
00> 4141
01> -17913
00> 4126
01> -17920
00> 4104
01> -17906
00> 4106
01> -17890
00> 4121
01> -17907
00> 4134
01> -17933
00> 4123
01> -17939
00> 4101
01> -17916
00> 4094
01> -17899
00> 4113
01> -17909
00> 4134
01> -17925
00> 4121
01> -17930
00> 4094
01> -17911
00> 4096
01> -17890
00> 4124
01> -17902
00> 4139
01> -17921
00> 4128
01> -17925
00> 4106
01> -17901
00> 4100
01> -17887
00> 4118
01> -17902
00> 4137
01> -17917
00> 4131
01> -17921
00> 4114
01> -17900
00> 4108
01> -17888
00> 4124
01> -17902
00> 4141
01> -17922
00> 4132
01> -17926
00> 4111
01> -17904
00> 4101
01> -17887
00> 4121
01> -17897
00> 4139
01> -17916
00> 4133
01> -17924
00> 4107
01> -17909
00> 4108
01> -17890
00> 4121
01> -17897
00> 4134
01> -17912
00> 4130
01> -17921
00> 4105
01> -17912
00> 4103
01> -17891
00> 4125
01> -17894
00> 4139
01> -17921
00> 4132
01> -17929
00> 4109
01> -17914
00> 4105
01> -17897
00> 4128
01> -17904
00> 4141
01> -17921
00> 4126
01> -17927
00> 4111
01> -17901
00> 4108
01> -17882
00> 4124
01> -17889
00> 4138
01> -17907
00> 4131
01> -17916
00> 4112
01> -17901
00> 4102
01> -17882
00> 4119
01> -17891
00> 4139
01> -17917
00> 4131
01> -17929
00> 4112
01> -17914
00> 4099
01> -17899
00> 4115
01> -17906
00> 4134
01> -17920
00> 4129
01> -17921
00> 4104
01> -17897
00> 4104
01> -17874
00> 4124
01> -17884
00> 4136
01> -17917
00> 4124
01> -17930
00> 4098
01> -17912
00> 4094
01> -17887
00> 4119
01> -17892
00> 4133
01> -17912
00> 4120
01> -17915
00> 4104
01> -17894
00> 4097
01> -17879
00> 4113
01> -17884
00> 4133
01> -17906
00> 4127
01> -17908
00> 4106
01> -17899
00> 4095
01> -17886
00> 4112
01> -17888
00> 4136
01> -17909
00> 4129
01> -17919
00> 4107
01> -17904
00> 4101
01> -17884
00> 4115
01> -17886
00> 4134
01> -17904
00> 4121
01> -17919
00> 4098
01> -17901
00> 4090
01> -17880
00> 4109
01> -17887
00> 4130
01> -17907
00> 4122
01> -17918
00> 4101
01> -17902
00> 4094
01> -17875
00> 4109
01> -17875
00> 4131
01> -17895
00> 4127
01> -17912
00> 4108
01> -17897
00> 4099
01> -17874
00> 4114
01> -17877
00> 4135
01> -17898
00> 4125
01> -17902
00> 4100
01> -17887
00> 4096
01> -17867
00> 4119
01> -17871
00> 4143
01> -17899
00> 4129
01> -17909
00> 4106
01> -17887
00> 4102
01> -17876
00> 4113
01> -17888
00> 4129
01> -17908
00> 4124
01> -17915
00> 4104
01> -17906
00> 4098
01> -17889
00> 4115
01> -17896
00> 4137
01> -17919
00> 4131
01> -17930
00> 4101
01> -17913
00> 4094
01> -17891
00> 4111
01> -17890
00> 4127
01> -17916
00> 4128
01> -17919
00> 4105
01> -17906
00> 4098
01> -17889
00> 4118
01> -17886
00> 4132
01> -17904
00> 4134
01> -17911
00> 4132
01> -17890
00> 4136
01> -17862
00> 4148
01> -17861
00> 4162
01> -17881
00> 4154
01> -17879
00> 4138
01> -17854
00> 4151
01> -17807
00> 4173
01> -17783
00> 4206
01> -17769
00> 4209
01> -17747
00> 4206
01> -17688
00> 4223
01> -17617
00> 4261
01> -17569
00> 4309
01> -17532
00> 4329
01> -17482
00> 4328
01> -17412
00> 4341
01> -17337
00> 4384
01> -17289
00> 4422
01> -17271
00> 4430
01> -17254
00> 4416
01> -17223
00> 4411
01> -17196
00> 4430
01> -17199
00> 4451
01> -17214
00> 4439
01> -17236
00> 4411
01> -17234
00> 4397
01> -17228
00> 4411
01> -17237
00> 4421
01> -17271
00> 4403
01> -17300
00> 4377
01> -17297
00> 4358
01> -17299
00> 4371
01> -17321
00> 4375
01> -17363
00> 4365
01> -17390
00> 4343
01> -17394
00> 4329
01> -17392
00> 4341
01> -17407
00> 4351
01> -17446
00> 4339
01> -17470
00> 4320
01> -17467
00> 4303
01> -17462
00> 4306
01> -17476
00> 4323
01> -17507
00> 4319
01> -17534
00> 4293
01> -17550
00> 4274
01> -17551
00> 4286
01> -17559
00> 4300
01> -17592
00> 4290
01> -17623
00> 4257
01> -17623
00> 4240
01> -17611
00> 4253
01> -17624
00> 4273
01> -17656
00> 4266
01> -17677
00> 4239
01> -17671
00> 4220
01> -17662
00> 4231
01> -17672
00> 4249
01> -17698
00> 4246
01> -17719
00> 4216
01> -17719
00> 4198
01> -17707
00> 4214
01> -17714
00> 4227
01> -17746
00> 4229
01> -17770
00> 4204
01> -17762
00> 4188
01> -17748
00> 4200
01> -17756
00> 4226
01> -17782
00> 4223
01> -17796
00> 4198
01> -17789
00> 4182
01> -17775
00> 4194
01> -17776
00> 4218
01> -17797
00> 4212
01> -17814
00> 4192
01> -17796
00> 4178
01> -17779
00> 4196
01> -17784
00> 4219
01> -17809
00> 4220
01> -17828
00> 4197
01> -17824
00> 4178
01> -17804
00> 4191
01> -17804
00> 4206
01> -17831
00> 4203
01> -17838
00> 4183
01> -17817
00> 4174
01> -17791
00> 4188
01> -17794
00> 4208
01> -17817
00> 4214
01> -17840
00> 4192
01> -17834
00> 4183
01> -17807
00> 4195
01> -17801
00> 4213
01> -17819
00> 4209
01> -17836
00> 4196
01> -17826
00> 4174
01> -17813
00> 4167
01> -17812
00> 4179
01> -17833
00> 4172
01> -17847
00> 4158
01> -17837
00> 4141
01> -17819
00> 4141
01> -17819
00> 4151
01> -17841
00> 4138
01> -17862
00> 4109
01> -17852
00> 4098
01> -17826
00> 4110
01> -17820
00> 4129
01> -17847
00> 4136
01> -17862
00> 4115
01> -17847
00> 4103
01> -17830
00> 4120
01> -17831
00> 4139
01> -17857
00> 4141
01> -17876
00> 4117
01> -17856
00> 4103
01> -17827
00> 4119
01> -17821
00> 4147
01> -17841
00> 4146
01> -17849
00> 4127
01> -17831
00> 4121
01> -17812
00> 4133
01> -17811
00> 4148
01> -17833
00> 4145
01> -17845
00> 4120
01> -17832
00> 4114
01> -17817
00> 4125
01> -17819
00> 4144
01> -17837
00> 4146
01> -17851
00> 4121
01> -17843
00> 4109
01> -17819
00> 4118
01> -17822
00> 4141
01> -17845
00> 4146
01> -17853
00> 4123
01> -17849
00> 4111
01> -17825
00> 4123
01> -17819
00> 4139
01> -17842
00> 4135
01> -17860
00> 4113
01> -17848
00> 4105
01> -17822
00> 4117
01> -17824
00> 4141
01> -17848
00> 4145
01> -17859
00> 4123
01> -17852
00> 4109
01> -17827
00> 4118
01> -17814
00> 4141
01> -17828
00> 4144
01> -17849
00> 4127
01> -17839
00> 4111
01> -17816
00> 4117
01> -17814
00> 4137
01> -17829
00> 4143
01> -17846
00> 4123
01> -17832
00> 4108
01> -17810
00> 4117
01> -17817
00> 4136
01> -17834
00> 4143
01> -17847
00> 4127
01> -17843
00> 4108
01> -17824
00> 4124
01> -17815
00> 4147
01> -17834
00> 4144
01> -17851
00> 4123
01> -17842
00> 4109
01> -17826
00> 4115
01> -17821
00> 4136
01> -17841
00> 4141
01> -17857
00> 4127
01> -17852
00> 4114
01> -17834
00> 4126
01> -17824
00> 4154
01> -17837
00> 4152
01> -17852
00> 4129
01> -17837
00> 4105
01> -17807
00> 4119
01> -17801
00> 4146
01> -17822
00> 4146
01> -17837
00> 4124
01> -17835
00> 4109
01> -17817
00> 4120
01> -17804
00> 4148
01> -17821
00> 4156
01> -17834
00> 4138
01> -17827
00> 4123
01> -17807
00> 4133
01> -17801
00> 4146
01> -17819
00> 4150
01> -17830
00> 4134
01> -17821
00> 4118
01> -17804
00> 4129
01> -17801
00> 4155
01> -17812
00> 4156
01> -17831
00> 4130
01> -17823
00> 4117
01> -17801
00> 4130
01> -17793
00> 4153
01> -17814
00> 4155
01> -17836
00> 4133
01> -17827
00> 4122
01> -17797
00> 4129
01> -17797
00> 4148
01> -17816
00> 4156
01> -17827
00> 4139
01> -17821
00> 4126
01> -17799
00> 4129
01> -17786
00> 4149
01> -17802
00> 4154
01> -17826
00> 4136
01> -17820
00> 4119
01> -17796
00> 4128
01> -17786
00> 4154
01> -17801
00> 4156
01> -17825
00> 4141
01> -17822
00> 4126
01> -17801
00> 4128
01> -17797
00> 4152
01> -17824
00> 4165
01> -17846
00> 4144
01> -17848
00> 4121
01> -17838
00> 4131
01> -17832
00> 4159
01> -17848
00> 4162
01> -17874
00> 4138
01> -17873
00> 4120
01> -17849
00> 4128
01> -17841
00> 4151
01> -17857
00> 4156
01> -17879
00> 4137
01> -17872
00> 4125
01> -17846
00> 4133
01> -17839
00> 4152
01> -17858
00> 4156
01> -17875
00> 4136
01> -17871
00> 4116
01> -17841
00> 4127
01> -17830
00> 4156
01> -17844
00> 4171
01> -17867
00> 4148
01> -17864
00> 4131
01> -17839
00> 4144
01> -17829
00> 4154
01> -17847
00> 4163
01> -17863
00> 4144
01> -17857
00> 4125
01> -17822
00> 4137
01> -17805
00> 4163
01> -17829
00> 4171
01> -17860
00> 4154
01> -17851
00> 4128
01> -17825
00> 4136
01> -17814
00> 4162
01> -17827
00> 4172
01> -17845
00> 4154
01> -17840
00> 4131
01> -17819
00> 4136
01> -17812
00> 4159
01> -17826
00> 4168
01> -17845
00> 4154
01> -17846
00> 4134
01> -17827
00> 4139
01> -17819
00> 4161
01> -17830
00> 4170
01> -17849
00> 4145
01> -17843
00> 4135
01> -17818
00> 4144
01> -17814
00> 4164
01> -17831
00> 4169
01> -17854
00> 4153
01> -17849
00> 4135
01> -17830
00> 4143
01> -17824
00> 4162
01> -17830
00> 4165
01> -17842
00> 4148
01> -17842
00> 4132
01> -17816
00> 4140
01> -17806
00> 4158
01> -17822
00> 4161
01> -17840
00> 4149
01> -17837
00> 4129
01> -17816
00> 4139
01> -17802
00> 4159
01> -17811
00> 4167
01> -17836
00> 4153
01> -17840
00> 4138
01> -17816
00> 4136
01> -17803
00> 4156
01> -17819
00> 4168
01> -17834
00> 4157
01> -17827
00> 4135
01> -17806
00> 4131
01> -17792
00> 4161
01> -17801
00> 4171
01> -17824
00> 4157
01> -17821
00> 4141
01> -17806
00> 4140
01> -17800
00> 4159
01> -17809
00> 4166
01> -17825
00> 4148
01> -17822
00> 4134
01> -17794
00> 4139
01> -17779
00> 4156
01> -17798
00> 4159
01> -17817
00> 4154
01> -17816
00> 4136
01> -17796
00> 4136
01> -17788
00> 4151
01> -17801
00> 4164
01> -17818
00> 4149
01> -17817
00> 4129
01> -17794
00> 4134
01> -17784
00> 4160
01> -17803
00> 4169
01> -17822
00> 4152
01> -17819
00> 4129
01> -17801
00> 4127
01> -17785
00> 4150
01> -17799
00> 4159
01> -17821
00> 4148
01> -17816
00> 4128
01> -17794
00> 4125
01> -17784
00> 4153
01> -17792
00> 4161
01> -17816
00> 4147
01> -17814
00> 4125
01> -17786
00> 4128
01> -17775
00> 4158
01> -17795
00> 4177
01> -17811
00> 4154
01> -17811
00> 4130
01> -17789
00> 4128
01> -17774
00> 4153
01> -17778
00> 4164
01> -17805
00> 4145
01> -17807
00> 4128
01> -17785
00> 4136
01> -17764
00> 4158
01> -17782
00> 4164
01> -17817
00> 4151
01> -17806
00> 4131
01> -17770
00> 4135
01> -17755
00> 4159
01> -17771
00> 4174
01> -17791
00> 4159
01> -17790
00> 4134
01> -17767
00> 4141
01> -17752
00> 4164
01> -17770
00> 4176
01> -17798
00> 4166
01> -17804
00> 4141
01> -17789
00> 4134
01> -17777
00> 4154
01> -17786
00> 4169
01> -17802
00> 4151
01> -17800
00> 4129
01> -17776
00> 4131
01> -17766
00> 4155
01> -17774
00> 4169
01> -17804
00> 4159
01> -17809
00> 4140
01> -17782
00> 4143
01> -17761
00> 4165
01> -17767
00> 4177
01> -17784
00> 4164
01> -17781
00> 4145
01> -17759
00> 4150
01> -17747
00> 4162
01> -17766
00> 4164
01> -17786
00> 4154
01> -17782
00> 4133
01> -17764
00> 4139
01> -17747
00> 4161
01> -17762
00> 4162
01> -17792
00> 4157
01> -17786
00> 4137
01> -17766
00> 4152
01> -17736
00> 4174
01> -17739
00> 4181
01> -17766
00> 4163
01> -17777
00> 4146
01> -17757
00> 4142
01> -17741
00> 4159
01> -17753
00> 4171
01> -17782
00> 4162
01> -17777
00> 4149
01> -17747
00> 4144
01> -17732
00> 4166
01> -17741
00> 4177
01> -17764
00> 4163
01> -17766
00> 4138
01> -17743
00> 4148
01> -17724
00> 4165
01> -17737
00> 4183
01> -17761
00> 4174
01> -17769
00> 4146
01> -17747
00> 4150
01> -17726
00> 4171
01> -17737
00> 4183
01> -17751
00> 4164
01> -17749
00> 4148
01> -17729
00> 4158
01> -17703
00> 4171
01> -17716
00> 4188
01> -17733
00> 4170
01> -17731
00> 4158
01> -17704
00> 4157
01> -17696
00> 4177
01> -17704
00> 4189
01> -17717
00> 4185
01> -17725
00> 4157
01> -17706
00> 4148
01> -17686
00> 4180
01> -17687
00> 4194
01> -17713
00> 4173
01> -17719
00> 4159
01> -17699
00> 4159
01> -17689
00> 4181
01> -17702
00> 4199
01> -17712
00> 4175
01> -17720
00> 4148
01> -17707
00> 4147
01> -17690
00> 4167
01> -17694
00> 4185
01> -17712
00> 4171
01> -17722
00> 4147
01> -17703
00> 4143
01> -17689
00> 4173
01> -17692
00> 4175
01> -17721
00> 4164
01> -17722
00> 4153
01> -17701
00> 4151
01> -17692
00> 4175
01> -17702
00> 4190
01> -17722
00> 4176
01> -17722
00> 4144
01> -17718
00> 4141
01> -17701
00> 4164
01> -17707
00> 4180
01> -17724
00> 4171
01> -17734
00> 4141
01> -17720
00> 4146
01> -17699
00> 4164
01> -17713
00> 4180
01> -17734
00> 4166
01> -17741
00> 4142
01> -17721
00> 4142
01> -17712
00> 4154
01> -17727
00> 4169
01> -17749
00> 4164
01> -17747
00> 4142
01> -17726
00> 4128
01> -17711
00> 4151
01> -17722
00> 4174
01> -17739
00> 4151
01> -17751
00> 4133
01> -17737
00> 4123
01> -17716
00> 4143
01> -17721
00> 4160
01> -17746
00> 4151
01> -17750
00> 4126
01> -17738
00> 4135
01> -17716
00> 4160
01> -17716
00> 4180
01> -17729
00> 4162
01> -17724
00> 4121
01> -17716
00> 4132
01> -17702
00> 4151
01> -17709
00> 4158
01> -17739
00> 4149
01> -17761
00> 4127
01> -17746
00> 4105
01> -17730
00> 4154
01> -17729
00> 4164
01> -17732
00> 4148
01> -17732
00> 4143
01> -17711
00> 4128
01> -17706
00> 4143
01> -17717
00> 4159
01> -17725
00> 4133
01> -17744
00> 4116
01> -17748
00> 4121
01> -17718
00> 4143
01> -17696
00> 4157
01> -17739
00> 4153
01> -17774
00> 4131
01> -17751
00> 4132
01> -17707
00> 4139
01> -17721
00> 4139
01> -17715
00> 4156
01> -17743
00> 4133
01> -17748
00> 4100
01> -17732
00> 4126
01> -17739
00> 4171
01> -17741
00> 4136
01> -17746
00> 4126
01> -17720
00> 4121
01> -17726
00> 4146
01> -17731
00> 4148
01> -17735
00> 4128
01> -17731
00> 4131
01> -17731
00> 4073
01> -17683
00> 4093
01> -17697
00> 4142
01> -17756
00> 4139
01> -17727
00> 4146
01> -17729
00> 4114
01> -17732
00> 4128
01> -17744
00> 4146
01> -17765
00> 4134
01> -17761
00> 4108
01> -17742
00> 4117
01> -17727
00> 4148
01> -17701
00> 4114
01> -17674
00> 4174
01> -17737
00> 4158
01> -17701
00> 4167
01> -17688
00> 4176
01> -17702
00> 4188
01> -17721
00> 4189
01> -17702
00> 4194
01> -17636
00> 4226
01> -17584
00> 4213
01> -17573
00> 4223
01> -17554
00> 4239
01> -17507
00> 4224
01> -17428
00> 4229
01> -17312
00> 4286
01> -17246
00> 4339
01> -17170
00> 4404
01> -17052
00> 4423
01> -17004
00> 4438
01> -16926
00> 4448
01> -16881
00> 4483
01> -16841
00> 4486
01> -16811
00> 4506
01> -16778
00> 4500
01> -16767
00> 4479
01> -16789
00> 4503
01> -16825
00> 4486
01> -16836
00> 4452
01> -16821
00> 4461
01> -16832
00> 4425
01> -16846
00> 4442
01> -16868
00> 4446
01> -16910
00> 4417
01> -16933
00> 4388
01> -16936
00> 4385
01> -16969
00> 4380
01> -17024
00> 4388
01> -17052
00> 4358
01> -17054
00> 4343
01> -17039
00> 4359
01> -17056
00> 4371
01> -17089
00> 4333
01> -17121
00> 4314
01> -17126
00> 4283
01> -17108
00> 4290
01> -17125
00> 4322
01> -17134
00> 4298
01> -17177
00> 4291
01> -17196
00> 4291
01> -17199
00> 4282
01> -17244
00> 4285
01> -17281
00> 4285
01> -17291
00> 4263
01> -17308
00> 4246
01> -17308
00> 4259
01> -17319
00> 4274
01> -17361
00> 4274
01> -17383
00> 4244
01> -17371
00> 4206
01> -17371
00> 4243
01> -17387
00> 4248
01> -17425
00> 4229
01> -17435
00> 4178
01> -17414
00> 4211
01> -17423
00> 4224
01> -17437
00> 4216
01> -17469
00> 4233
01> -17471
00> 4201
01> -17461
00> 4194
01> -17480
00> 4214
01> -17478
00> 4216
01> -17503
00> 4213
01> -17519
00> 4210
01> -17494
00> 4179
01> -17488
00> 4173
01> -17510
00> 4201
01> -17536
00> 4206
01> -17549
00> 4182
01> -17540
00> 4171
01> -17524
00> 4183
01> -17527
00> 4184
01> -17554
00> 4184
01> -17556
00> 4178
01> -17548
00> 4151
01> -17544
00> 4183
01> -17548
00> 4216
01> -17554
00> 4211
01> -17554
00> 4186
01> -17554
00> 4167
01> -17527
00> 4231
01> -17489
00> 4280
01> -17483
00> 4251
01> -17447
00> 4233
01> -17402
00> 4249
01> -17340
00> 4299
01> -17272
00> 4331
01> -17226
00> 4369
01> -17162
00> 4395
01> -17063
00> 4401
01> -16979
00> 4481
01> -16892
00> 4523
01> -16854
00> 4534
01> -16827
00> 4516
01> -16759
00> 4516
01> -16752
00> 4549
01> -16743
00> 4582
01> -16742
00> 4594
01> -16757
00> 4571
01> -16751
00> 4573
01> -16735
00> 4583
01> -16771
00> 4593
01> -16797
00> 4589
01> -16806
00> 4554
01> -16835
00> 4526
01> -16838
00> 4526
01> -16875
00> 4549
01> -16909
00> 4538
01> -16947
00> 4483
01> -16980
00> 4459
01> -16987
00> 4465
01> -17013
00> 4469
01> -17073
00> 4457
01> -17121
00> 4421
01> -17131
00> 4428
01> -17124
00> 4421
01> -17145
00> 4436
01> -17189
00> 4428
01> -17228
00> 4409
01> -17249
00> 4383
01> -17249
00> 4373
01> -17227
00> 4374
01> -17256
00> 4374
01> -17337
00> 4351
01> -17347
00> 4332
01> -17332
00> 4335
01> -17326
00> 4364
01> -17347
00> 4361
01> -17381
00> 4302
01> -17402
00> 4308
01> -17392
00> 4344
01> -17389
00> 4337
01> -17431
00> 4324
01> -17437
00> 4279
01> -17434
00> 4294
01> -17424
00> 4299
01> -17446
00> 4298
01> -17480
00> 4285
01> -17507
00> 4260
01> -17492
00> 4243
01> -17488
00> 4273
01> -17504
00> 4306
01> -17527
00> 4278
01> -17556
00> 4217
01> -17565
00> 4232
01> -17549
00> 4246
01> -17545
00> 4267
01> -17581
00> 4257
01> -17608
00> 4230
01> -17606
00> 4218
01> -17590
00> 4219
01> -17592
00> 4227
01> -17616
00> 4236
01> -17622
00> 4223
01> -17602
00> 4201
01> -17577
00> 4199
01> -17602
00> 4226
01> -17618
00> 4237
01> -17645
00> 4203
01> -17644
00> 4186
01> -17594
00> 4213
01> -17588
00> 4214
01> -17637
00> 4207
01> -17650
00> 4199
01> -17640
00> 4184
01> -17628
00> 4193
01> -17622
00> 4218
01> -17649
00> 4215
01> -17645
00> 4189
01> -17644
00> 4188
01> -17627
00> 4185
01> -17629
00> 4204
01> -17659
00> 4233
01> -17661
00> 4193
01> -17664
00> 4164
01> -17614
00> 4196
01> -17609
00> 4194
01> -17650
00> 4180
01> -17681
00> 4192
01> -17666
00> 4189
01> -17638
00> 4189
01> -17637
00> 4206
01> -17649
00> 4183
01> -17657
00> 4160
01> -17644
00> 4143
01> -17604
00> 4136
01> -17599
00> 4149
01> -17626
00> 4185
01> -17622
00> 4133
01> -17607
00> 4113
01> -17586
00> 4163
01> -17562
00> 4169
01> -17592
00> 4166
01> -17610
00> 4135
01> -17603
00> 4128
01> -17582
00> 4140
01> -17570
00> 4154
01> -17592
00> 4162
01> -17615
00> 4140
01> -17603
00> 4123
01> -17574
00> 4134
01> -17562
00> 4152
01> -17592
00> 4159
01> -17611
00> 4126
01> -17600
00> 4139
01> -17581
00> 4134
01> -17587
00> 4159
01> -17596
00> 4165
01> -17599
00> 4141
01> -17592
00> 4123
01> -17576
00> 4138
01> -17569
00> 4149
01> -17586
00> 4169
01> -17602
00> 4147
01> -17594
00> 4127
01> -17575
00> 4143
01> -17566
00> 4158
01> -17582
00> 4158
01> -17596
00> 4149
01> -17574
00> 4140
01> -17551
00> 4143
01> -17560
00> 4151
01> -17581
00> 4159
01> -17604
00> 4136
01> -17597
00> 4134
01> -17573
00> 4148
01> -17578
00> 4154
01> -17603
00> 4163
01> -17602
00> 4145
01> -17596
00> 4114
01> -17579
00> 4124
01> -17566
00> 4163
01> -17560
00> 4157
01> -17576
00> 4134
01> -17589
00> 4112
01> -17571
00> 4131
01> -17551
00> 4151
01> -17572
00> 4159
01> -17595
00> 4136
01> -17596
00> 4119
01> -17567
00> 4128
01> -17550
00> 4143
01> -17572
00> 4136
01> -17594
00> 4133
01> -17586
00> 4119
01> -17566
00> 4128
01> -17564
00> 4156
01> -17571
00> 4161
01> -17589
00> 4134
01> -17581
00> 4119
01> -17552
00> 4131
01> -17544
00> 4169
01> -17556
00> 4162
01> -17565
00> 4134
01> -17563
00> 4104
01> -17558
00> 4118
01> -17554
00> 4147
01> -17577
00> 4154
01> -17590
00> 4111
01> -17585
00> 4106
01> -17557
00> 4111
01> -17547
00> 4139
01> -17569
00> 4158
01> -17579
00> 4128
01> -17574
00> 4119
01> -17559
00> 4117
01> -17542
00> 4134
01> -17547
00> 4160
01> -17579
00> 4141
01> -17576
00> 4111
01> -17553
00> 4109
01> -17546
00> 4136
01> -17558
00> 4128
01> -17573
00> 4112
01> -17569
00> 4103
01> -17554
00> 4086
01> -17556
00> 4109
01> -17562
00> 4109
01> -17579
00> 4105
01> -17564
00> 4095
01> -17541
00> 4098
01> -17535
00> 4128
01> -17557
00> 4128
01> -17572
00> 4103
01> -17569
00> 4088
01> -17539
00> 4086
01> -17530
00> 4118
01> -17537
00> 4128
01> -17555
00> 4106
01> -17554
00> 4104
01> -17529
00> 4096
01> -17532
00> 4126
01> -17547
00> 4110
01> -17562
00> 4086
01> -17559
00> 4088
01> -17542
00> 4090
01> -17537
00> 4107
01> -17552
00> 4109
01> -17570
00> 4094
01> -17562
00> 4091
01> -17532
00> 4094
01> -17522
00> 4109
01> -17549
00> 4112
01> -17571
00> 4101
01> -17559
00> 4083
01> -17536
00> 4086
01> -17530
00> 4102
01> -17549
00> 4108
01> -17569
00> 4102
01> -17550
00> 4087
01> -17527
00> 4076
01> -17516
00> 4082
01> -17526
00> 4101
01> -17561
00> 4113
01> -17553
00> 4086
01> -17536
00> 4086
01> -17520
00> 4100
01> -17526
00> 4096
01> -17557
00> 4098
01> -17550
00> 4086
01> -17527
00> 4074
01> -17514
00> 4104
01> -17534
00> 4111
01> -17551
00> 4089
01> -17546
00> 4066
01> -17526
00> 4072
01> -17523
00> 4088
01> -17544
00> 4123
01> -17557
00> 4078
01> -17552
00> 4057
01> -17522
00> 4066
01> -17519
00> 4086
01> -17541
00> 4093
01> -17566
00> 4076
01> -17557
00> 4060
01> -17522
00> 4068
01> -17508
00> 4097
01> -17535
00> 4106
01> -17546
00> 4071
01> -17546
00> 4068
01> -17521
00> 4061
01> -17512
00> 4075
01> -17536
00> 4099
01> -17546
00> 4091
01> -17549
00> 4060
01> -17536
00> 4063
01> -17519
00> 4077
01> -17523
00> 4088
01> -17547
00> 4069
01> -17552
00> 4064
01> -17520
00> 4063
01> -17506
00> 4086
01> -17516
00> 4095
01> -17523
00> 4088
01> -17542
00> 4058
01> -17526
00> 4043
01> -17514
00> 4084
01> -17520
00> 4091
01> -17544
00> 4077
01> -17534
00> 4059
01> -17514
00> 4064
01> -17498
00> 4083
01> -17498
00> 4070
01> -17538
00> 4068
01> -17541
00> 4068
01> -17521
00> 4061
01> -17507
00> 4071
01> -17512
00> 4088
01> -17541
00> 4059
01> -17539
00> 4032
01> -17518
00> 4062
01> -17485
00> 4069
01> -17492
00> 4061
01> -17533
00> 4079
01> -17538
00> 4055
01> -17517
00> 4031
01> -17511
00> 4073
01> -17511
00> 4082
01> -17538
00> 4093
01> -17547
00> 4043
01> -17507
00> 4046
01> -17494
00> 4066
01> -17511
00> 4070
01> -17528
00> 4059
01> -17517
00> 4060
01> -17505
00> 4056
01> -17502
00> 4065
01> -17519
00> 4089
01> -17525
00> 4083
01> -17511
00> 4057
01> -17494
00> 4049
01> -17487
00> 4078
01> -17502
00> 4098
01> -17521
00> 4069
01> -17531
00> 4058
01> -17491
00> 4054
01> -17469
00> 4091
01> -17482
00> 4081
01> -17509
00> 4079
01> -17501
00> 4064
01> -17482
00> 4079
01> -17470
00> 4078
01> -17503
00> 4073
01> -17518
00> 4070
01> -17510
00> 4060
01> -17479
00> 4066
01> -17442
00> 4073
01> -17478
00> 4097
01> -17484
00> 4079
01> -17473
00> 4089
01> -17458
00> 4093
01> -17435
00> 4088
01> -17456
00> 4146
01> -17454
00> 4127
01> -17437
00> 4097
01> -17412
00> 4099
01> -17376
00> 4155
01> -17335
00> 4158
01> -17350
00> 4170
01> -17322
00> 4181
01> -17249
00> 4157
01> -17207
00> 4187
01> -17147
00> 4241
01> -17099
00> 4266
01> -17024
00> 4264
01> -16949
00> 4316
01> -16833
00> 4331
01> -16786
00> 4374
01> -16764
00> 4384
01> -16696
00> 4393
01> -16658
00> 4384
01> -16612
00> 4414
01> -16594
00> 4451
01> -16594
00> 4443
01> -16572
00> 4408
01> -16530
00> 4387
01> -16527
00> 4452
01> -16559
00> 4455
01> -16587
00> 4416
01> -16593
00> 4413
01> -16550
00> 4402
01> -16552
00> 4400
01> -16603
00> 4395
01> -16648
00> 4391
01> -16659
00> 4361
01> -16657
00> 4350
01> -16649
00> 4378
01> -16654
00> 4375
01> -16679
00> 4388
01> -16683
00> 4375
01> -16667
00> 4365
01> -16651
00> 4371
01> -16651
00> 4424
01> -16644
00> 4438
01> -16614
00> 4409
01> -16577
00> 4393
01> -16534
00> 4434
01> -16514
00> 4480
01> -16474
00> 4506
01> -16424
00> 4468
01> -16399
00> 4475
01> -16359
00> 4523
01> -16319
00> 4565
01> -16319
00> 4541
01> -16306
00> 4505
01> -16279
00> 4527
01> -16256
00> 4558
01> -16256
00> 4583
01> -16251
00> 4564
01> -16277
00> 4526
01> -16247
00> 4529
01> -16239
00> 4554
01> -16261
00> 4555
01> -16293
00> 4541
01> -16303
00> 4515
01> -16296
00> 4504
01> -16271
00> 4514
01> -16299
00> 4515
01> -16342
00> 4478
01> -16374
00> 4454
01> -16400
00> 4446
01> -16401
00> 4467
01> -16410
00> 4446
01> -16474
00> 4420
01> -16525
00> 4394
01> -16520
00> 4367
01> -16527
00> 4381
01> -16561
00> 4384
01> -16595
00> 4350
01> -16637
00> 4368
01> -16633
00> 4325
01> -16600
00> 4353
01> -16673
00> 4338
01> -16719
00> 4313
01> -16738
00> 4293
01> -16748
00> 4283
01> -16718
00> 4312
01> -16728
00> 4302
01> -16779
00> 4281
01> -16827
00> 4271
01> -16801
00> 4241
01> -16797
00> 4250
01> -16826
00> 4251
01> -16849
00> 4283
01> -16914
00> 4243
01> -16905
00> 4231
01> -16875
00> 4238
01> -16907
00> 4218
01> -16947
00> 4203
01> -16956
00> 4190
01> -16965
00> 4192
01> -16979
00> 4216
01> -16997
00> 4197
01> -17027
00> 4182
01> -17044
00> 4157
01> -17060
00> 4168
01> -17068
00> 4193
01> -17073
00> 4169
01> -17111
00> 4148
01> -17129
00> 4153
01> -17112
00> 4126
01> -17106
00> 4151
01> -17129
00> 4132
01> -17168
00> 4133
01> -17176
00> 4101
01> -17188
00> 4104
01> -17177
00> 4128
01> -17178
00> 4134
01> -17225
00> 4126
01> -17247
00> 4093
01> -17232
00> 4084
01> -17224
00> 4096
01> -17226
00> 4101
01> -17231
00> 4118
01> -17235
00> 4113
01> -17248
00> 4091
01> -17242
00> 4116
01> -17241
00> 4141
01> -17242
00> 4125
01> -17239
00> 4089
01> -17223
00> 4084
01> -17197
00> 4098
01> -17176
00> 4172
01> -17175
00> 4171
01> -17150
00> 4139
01> -17089
00> 4168
01> -17060
00> 4213
01> -17005
00> 4233
01> -16962
00> 4239
01> -16927
00> 4242
01> -16851
00> 4256
01> -16746
00> 4324
01> -16677
00> 4358
01> -16650
00> 4374
01> -16592
00> 4364
01> -16507
00> 4355
01> -16435
00> 4400
01> -16459
00> 4421
01> -16464
00> 4423
01> -16441
00> 4400
01> -16416
00> 4388
01> -16404
00> 4424
01> -16404
00> 4434
01> -16453
00> 4391
01> -16491
00> 4353
01> -16486
00> 4346
01> -16486
00> 4351
01> -16547
00> 4309
01> -16592
00> 4320
01> -16643
00> 4290
01> -16658
00> 4256
01> -16707
00> 4241
01> -16743
00> 4238
01> -16804
00> 4235
01> -16852
00> 4206
01> -16860
00> 4166
01> -16872
00> 4164
01> -16896
00> 4134
01> -16957
00> 4174
01> -17018
00> 4113
01> -17029
00> 4067
01> -17017
00> 4085
01> -17038
00> 4128
01> -17113
00> 4101
01> -17134
00> 4099
01> -17129
00> 4066
01> -17112
00> 4049
01> -17152
00> 4087
01> -17180
00> 4078
01> -17212
00> 4041
01> -17202
00> 4044
01> -17189
00> 4033
01> -17211
00> 4058
01> -17234
00> 4034
01> -17253
00> 4035
01> -17252
00> 4015
01> -17241
00> 4054
01> -17279
00> 4039
01> -17314
00> 4028
01> -17341
00> 4025
01> -17324
00> 3961
01> -17320
00> 3985
01> -17347
00> 4014
01> -17372
00> 4020
01> -17401
00> 3978
01> -17401
00> 3948
01> -17373
00> 4009
01> -17378
00> 4028
01> -17410
00> 4016
01> -17426
00> 3999
01> -17416
00> 3988
01> -17391
00> 3958
01> -17395
00> 3996
01> -17399
00> 4011
01> -17433
00> 3993
01> -17429
00> 3989
01> -17402
00> 4011
01> -17375
00> 4039
01> -17400
00> 4038
01> -17394
00> 4014
01> -17360
00> 4024
01> -17282
00> 4077
01> -17239
00> 4076
01> -17244
00> 4047
01> -17189
00> 4129
01> -17127
00> 4139
01> -17095
00> 4169
01> -17052
00> 4210
01> -17014
00> 4196
01> -16953
00> 4138
01> -16907
00> 4203
01> -16846
00> 4265
01> -16810
00> 4268
01> -16826
00> 4256
01> -16812
00> 4245
01> -16784
00> 4233
01> -16760
00> 4248
01> -16752
00> 4258
01> -16785
00> 4253
01> -16805
00> 4246
01> -16784
00> 4201
01> -16771
00> 4190
01> -16775
00> 4181
01> -16826
00> 4204
01> -16878
00> 4165
01> -16901
00> 4146
01> -16909
00> 4127
01> -16924
00> 4104
01> -16974
00> 4116
01> -17036
00> 4071
01> -17008
00> 4053
01> -17053
00> 4058
01> -17101
00> 4071
01> -17130
00> 4055
01> -17160
00> 4029
01> -17175
00> 4011
01> -17141
00> 4019
01> -17162
00> 4034
01> -17226
00> 4026
01> -17267
00> 3966
01> -17234
00> 3964
01> -17203
00> 3991
01> -17259
00> 4001
01> -17291
00> 4009
01> -17296
00> 3968
01> -17293
00> 3938
01> -17284
00> 4001
01> -17275
00> 4012
01> -17327
00> 3971
01> -17359
00> 3930
01> -17352
00> 3914
01> -17320
00> 3934
01> -17362
00> 3946
01> -17388
00> 3997
01> -17405
00> 3953
01> -17398
00> 3933
01> -17416
00> 3911
01> -17403
00> 3934
01> -17434
00> 3979
01> -17441
00> 3934
01> -17417
00> 3876
01> -17387
00> 3931
01> -17442
00> 3951
01> -17457
00> 3930
01> -17469
00> 3931
01> -17449
00> 3910
01> -17404
00> 3933
01> -17424
00> 3947
01> -17432
00> 3920
01> -17438
00> 3933
01> -17457
00> 3929
01> -17432
00> 3973
01> -17409
00> 3999
01> -17397
00> 3920
01> -17436
00> 3947
01> -17392
00> 3971
01> -17334
00> 3987
01> -17315
00> 4009
01> -17295
00> 4033
01> -17314
00> 4013
01> -17283
00> 3986
01> -17201
00> 4045
01> -17117
00> 4093
01> -17110
00> 4116
01> -17067
00> 4119
01> -17004
00> 4099
01> -16954
00> 4078
01> -16917
00> 4169
01> -16924
00> 4205
01> -16954
00> 4154
01> -16947
00> 4111
01> -16908
00> 4181
01> -16912
00> 4178
01> -16952
00> 4168
01> -16984
00> 4119
01> -17001
00> 4118
01> -17014
00> 4113
01> -17049
00> 4120
01> -17105
00> 4104
01> -17149
00> 4091
01> -17181
00> 4016
01> -17164
00> 4021
01> -17214
00> 4100
01> -17240
00> 4059
01> -17278
00> 4023
01> -17303
00> 4013
01> -17319
00> 3999
01> -17332
00> 4056
01> -17354
00> 4077
01> -17374
00> 4024
01> -17371
00> 4000
01> -17396
00> 4015
01> -17409
00> 4021
01> -17452
00> 4016
01> -17472
00> 4010
01> -17471
00> 4004
01> -17464
00> 3996
01> -17459
00> 3993
01> -17496
00> 4014
01> -17541
00> 4034
01> -17533
00> 3986
01> -17511
00> 3961
01> -17499
00> 4001
01> -17521
00> 4023
01> -17522
00> 3984
01> -17527
00> 3974
01> -17518
00> 3979
01> -17520
00> 4013
01> -17539
00> 4041
01> -17557
00> 3991
01> -17557
00> 3970
01> -17547
00> 3981
01> -17540
00> 4001
01> -17555
00> 4017
01> -17563
00> 3977
01> -17546
00> 3975
01> -17542
00> 3983
01> -17540
00> 3988
01> -17550
00> 3989
01> -17560
00> 3991
01> -17572
00> 3968
01> -17544
00> 3962
01> -17549
00> 4020
01> -17564
00> 4012
01> -17566
00> 3976
01> -17550
00> 3971
01> -17539
00> 3986
01> -17556
00> 4007
01> -17566
00> 4009
01> -17577
00> 3987
01> -17563
00> 3969
01> -17538
00> 3986
01> -17528
00> 4016
01> -17548
00> 4019
01> -17564
00> 3994
01> -17557
00> 3973
01> -17527
00> 3992
01> -17519
00> 4022
01> -17537
00> 4019
01> -17564
00> 4011
01> -17537
00> 4008
01> -17521
00> 4009
01> -17499
00> 4031
01> -17528
00> 4028
01> -17536
00> 4028
01> -17520
00> 4011
01> -17511
00> 3999
01> -17472
00> 3994
01> -17501
00> 4068
01> -17519
00> 4031
01> -17530
00> 4013
01> -17507
00> 4036
01> -17489
00> 4040
01> -17488
00> 4023
01> -17489
00> 4049
01> -17506
00> 4052
01> -17474
00> 4035
01> -17484
00> 4013
01> -17502
00> 4041
01> -17511
00> 4044
01> -17513
00> 4014
01> -17477
00> 4021
01> -17445
00> 4060
01> -17482
00> 4047
01> -17544
00> 4034
01> -17511
00> 4021
01> -17499
00> 3993
01> -17524
00> 4048
01> -17493
00> 4031
01> -17491
00> 3994
01> -17514
00> 4031
01> -17504
00> 4033
01> -17466
00> 4066
01> -17504
00> 4041
01> -17537
00> 4023
01> -17514
00> 3989
01> -17458
00> 4014
01> -17511
00> 4052
01> -17481
00> 4051
01> -17519
00> 4031
01> -17529
00> 4038
01> -17498
00> 4042
01> -17445
00> 3970
01> -17493
00> 3908
01> -17579
00> 4007
01> -17531
00> 4051
01> -17487
00> 4046
01> -17449
00> 3985
01> -17439
00> 4052
01> -17543
00> 3978
01> -17576
00> 4004
01> -17450
00> 4000
01> -17412
00> 3951
01> -17470
00> 3982
01> -17539
00> 4031
01> -17518
00> 4019
01> -17511
00> 3996
01> -17504
00> 3984
01> -17509
00> 3988
01> -17505
00> 3980
01> -17487
00> 3923
01> -17556
00> 3978
01> -17534
00> 3985
01> -17503
00> 4004
01> -17556
00> 3981
01> -17537
00> 3996
01> -17486
00> 4050
01> -17487
00> 4003
01> -17509
00> 3971
01> -17522
00> 4004
01> -17486
00> 3959
01> -17469
00> 3990
01> -17487
00> 3980
01> -17482
00> 4023
01> -17502
00> 4048
01> -17450
00> 4001
01> -17432
00> 3995
01> -17438
00> 4094
01> -17387
00> 4079
01> -17479
00> 4006
01> -17496
00> 4006
01> -17435
00> 4068
01> -17409
00> 4061
01> -17395
00> 4076
01> -17454
00> 4041
01> -17456
00> 4009
01> -17442
00> 4009
01> -17427
00> 4046
01> -17447
00> 4066
01> -17454
00> 4054
01> -17430
00> 4022
01> -17407
00> 4032
01> -17444
00> 4018
01> -17461
00> 4049
01> -17481
00> 4048
01> -17491
00> 4024
01> -17441
00> 4039
01> -17400
00> 4017
01> -17434
00> 4079
