# SEGGER J-Link RTT Viewer V6.62 Terminal Log File
# Compiled: 16:34:01 on Jan 24 2020
# Logging started @ 07 Jun 2024 22:01:10

00> -7752
01> -7207
00> -7714
01> -7150
00> -7669
01> -7096
00> -7682
01> -7121
00> -7734
01> -7189
00> -7756
01> -7222
00> -7719
01> -7169
00> -7677
01> -7119
00> -7692
01> -7132
00> -7721
01> -7204
00> -7724
01> -7217
00> -7696
01> -7150
00> -7665
01> -7087
00> -7686
01> -7124
00> -7727
01> -7189
00> -7740
01> -7194
00> -7698
01> -7141
00> -7659
01> -7090
00> -7670
01> -7113
00> -7704
01> -7172
00> -7726
01> -7195
00> -7697
01> -7134
00> -7654
01> -7065
00> -7672
01> -7072
00> -7728
01> -7134
00> -7744
01> -7171
00> -7717
01> -7122
00> -7687
01> -7048
00> -7689
01> -7021
00> -7724
01> -7061
00> -7736
01> -7088
00> -7707
01> -7046
00> -7675
01> -6997
00> -7676
01> -7019
00> -7714
01> -7074
00> -7738
01> -7107
00> -7709
01> -7058
00> -7671
01> -7002
00> -7678
01> -7016
00> -7719
01> -7074
00> -7733
01> -7101
00> -7710
01> -7058
00> -7682
01> -6997
00> -7682
01> -7005
00> -7722
01> -7071
00> -7734
01> -7096
00> -7701
01> -7047
00> -7667
01> -6991
00> -7676
01> -7004
00> -7712
01> -7067
00> -7711
01> -7089
00> -7674
01> -7026
00> -7636
01> -6949
00> -7642
01> -6961
00> -7676
01> -7021
00> -7686
01> -7026
00> -7648
01> -6961
00> -7606
01> -6895
00> -7599
01> -6878
00> -7619
01> -6908
00> -7617
01> -6916
00> -7577
01> -6867
00> -7532
01> -6791
00> -7531
01> -6767
00> -7549
01> -6808
00> -7540
01> -6814
00> -7506
01> -6746
00> -7460
01> -6685
00> -7456
01> -6686
00> -7484
01> -6713
00> -7494
01> -6724
00> -7457
01> -6678
00> -7411
01> -6606
00> -7417
01> -6593
00> -7446
01> -6630
00> -7457
01> -6642
00> -7427
01> -6586
00> -7405
01> -6531
00> -7417
01> -6547
00> -7457
01> -6618
00> -7478
01> -6664
00> -7457
01> -6652
00> -7437
01> -6617
00> -7458
01> -6646
00> -750600> -7506
01> -6726
00> -7526
01> -6767
00> -7513
01> -6754
00> -7491
01> -6740
00> -7509
01> -6764
00> -7551
01> -6809
00> -7561
01> -6827
00> -7537
01> -6790
00> -7519
01> -6769
00> -7533
01> -6806
00> -7577
01> -6877
00> -7592
01> -6912
00> -7569
01> -6884
00> -7546
01> -6834
00> -7558
01> -6838
00> -7597
01> -6889
00> -7617
01> -6916
00> -7600
01> -6884
00> -7584
01> -6857
00> -7586
01> -6863
00> -7609
01> -6914
00> -7624
01> -6936
00> -7599
01> -6894
00> -7564
01> -6844
00> -7567
01> -6851
00> -7602
01> -6911
00> -7619
01> -6937
00> -7599
01> -6904
00> -7566
01> -6867
00> -7580
01> -6886
00> -7614
01> -6939
00> -7625
01> -6964
00> -7600
01> -6919
00> -7564
01> -6858
00> -7565
01> -6866
00> -7594
01> -6919
00> -7606
01> -6935
00> -7576
01> -6876
00> -7546
01> -6810
00> -7541
01> -6812
00> -7571
01> -6866
00> -7579
01> -6889
00> -7534
01> -6842
00> -7480
01> -6772
00> -7462
01> -6740
00> -7479
01> -6757
00> -7481
01> -6758
00> -7436
01> -6696
00> -7385
01> -6612
00> -7374
01> -6573
00> -7396
01> -6606
00> -7396
01> -6607
00> -7338
01> -6532
00> -7308
01> -6486
00> -7323
01> -6510
00> -7349
01> -6567
00> -7361
01> -6597
00> -7341
01> -6578
00> -7316
01> -6541
00> -7328
01> -6533
00> -7376
01> -6564
00> -7402
01> -6615
00> -7394
01> -6616
00> -7388
01> -6621
00> -7402
01> -6667
00> -7444
01> -6719
00> -7470
01> -6739
00> -7457
01> -6731
00> -7438
01> -6735
00> -7442
01> -6757
00> -7468
01> -6794
00> -7497
01> -6816
00> -7495
01> -6793
00> -7481
01> -6778
00> -7497
01> -6811
00> -7536
01> -6874
00> -7558
01> -6928
00> -7544
01> -6929
00> -7525
01> -6884
00> -7530
01> -6879
00> -7564
01> -6937
00> -7577
01> -6981
00> -7566
01> -6957
00> -7548
01> -6910
00> -7552
01> -6941
00> -7579
01> -6964
00> -7594
01> -6952
00> -7576
01> -6922
00> -7555
01> -6906
00> -7558
01> -6934
00> -7587
01> -6984
00> -7607
01> -7014
00> -7594
01> -6997
00> -7562
01> -6966
00> -7564
01> -6984
00> -7595
01> -7036
00> -7612
01> -7052
00> -7592
01> -7020
00> -7561
01> -6977
00> -7561
01> -6967
00> -7590
01> -7009
00> -7611
01> -7045
00> -7591
01> -7008
00> -7552
01> -6926
00> -7546
01> -6909
00> -7577
01> -6957
00> -7596
01> -6997
00> -7582
01> -6982
00> -7558
01> -6958
00> -7564
01> -6981
00> -7595
01> -7039
00> -7618
01> -7071
00> -7597
01> -7025
00> -7562
01> -6966
00> -7563
01> -6969
00> -7586
01> -7005
00> -7605
01> -7025
00> -7588
01> -7006
00> -7574
01> -6988
00> -7581
01> -6993
00> -7612
01> -7044
00> -7626
01> -7066
00> -7594
01> -7008
00> -7559
01> -6938
00> -7566
01> -6943
00> -7596
01> -6990
00> -7616
01> -7034
00> -7599
01> -7027
00> -7574
01> -7000
00> -7577
01> -7009
00> -7609
01> -7048
00> -7626
01> -7054
00> -7603
01> -7020
00> -7576
01> -6989
00> -7589
01> -7001
00> -7619
01> -7046
00> -7634
01> -7059
00> -7617
01> -7026
00> -7588
01> -6996
00> -7584
01> -7001
00> -7612
01> -7032
00> -7634
01> -7035
00> -7624
01> -7048
00> -7601
00> -8116
01> -7649
00> -8130
01> -7669
00> -8129
01> -7661
00> -8107
01> -7638
00> -8107
01> -7641
00> -8122
01> -7657
00> -8128
01> -7677
00> -8112
01> -7661
00> -8087
01> -7622
00> -8087
01> -7616
00> -8110
01> -7654
00> -8125
01> -7669
00> -8117
01> -7654
00> -8091
01> -7624
00> -8080
01> -7625
00> -8106
01> -7658
00> -8130
01> -7692
00> -8131
01> -7686
00> -8109
01> -7645
00> -8091
01> -7624
00> -8100
01> -7645
00> -8118
01> -7676
00> -8116
01> -7674
00> -8092
01> -7639
00> -8088
01> -7634
00> -8111
01> -7669
00> -8123
01> -7692
00> -8108
01> -7671
00> -8082
01> -7632
00> -8077
01> -7622
00> -8097
01> -7636
00> -8107
01> -7659
00> -8096
01> -7655
00> -8077
01> -7632
00> -8075
01> -7628
00> -8099
01> -7657
00> -8120
01> -7681
00> -8103
01> -7654
00> -8075
01> -7609
00> -8066
01> -7595
00> -8095
01> -7632
00> -8120
01> -7669
00> -8119
01> -7676
00> -8108
01> -7662
00> -8098
01> -7644
00> -8106
01> -7651
00> -8116
01> -7665
00> -8114
01> -7654
00> -8100
01> -7641
00> -8101
01> -7639
00> -8116
01> -7662
00> -8123
01> -7679
00> -8109
01> -7663
00> -8082
01> -7635
00> -8076
01> -7625
00> -8090
01> -7659
00> -8107
01> -7691
00> -8101
01> -7674
00> -8074
01> -7633
00> -8077
01> -7623
00> -8096
01> -7660
00> -8113
01> -7687
00> -8102
01> -7677
00> -8074
01> -7636
00> -8050
01> -7609
00> -8072
01> -7631
00> -8097
01> -7663
00> -8089
01> -7653
00> -8067
01> -7619
00> -8069
01> -7622
00> -8099
01> -7652
00> -8107
01> -7674
00> -8093
01> -7672
00> -8066
01> -7645
00> -8060
01> -7639
00> -8084
01> -7668
00> -8104
01> -7690
00> -8107
01> -7672
00> -8080
01> -7631
00> -8058
01> -7613
00> -8074
01> -7638
00> -8099
01> -7672
00> -8102
01> -7682
00> -8077
01> -7653
00> -8072
01> -7638
00> -8085
01> -7654
00> -8096
01> -7672
00> -8087
01> -7660
00> -8070
01> -7646
00> -8055
01> -7629
00> -8068
01> -7638
00> -8096
01> -7657
00> -8091
01> -7657
00> -8071
01> -7646
00> -8065
01> -7643
00> -8074
01> -7658
00> -8084
01> -7674
00> -8086
01> -7664
00> -8069
01> -7637
00> -8066
01> -7638
00> -8096
01> -7669
00> -8117
01> -7696
00> -8113
01> -7689
00> -8091
01> -7659
00> -8080
01> -7649
00> -8103
01> -7667
00> -8126
01> -7686
00> -8114
01> -7684
00> -8096
01> -7660
00> -8086
01> -7652
00> -8097
01> -7669
00> -8111
01> -7695
00> -8109
01> -7697
00> -8094
01> -7672
00> -8087
01> -7665
00> -8106
01> -7684
00> -8125
01> -7697
00> -8119
01> -7679
00> -8096
01> -7652
00> -8085
01> -7643
00> -8099
01> -7670
00> -8114
01> -7693
00> -8107
01> -7693
00> -8078
01> -7674
00> -8062
01> -7653
00> -8072
01> -7662
00> -8096
01> -7681
00> -8101
01> -7691
00> -8096
01> -7674
00> -8079
01> -7656
00> -8083
01> -7674
00> -8094
01> -7690
00> -8088
01> -7689
00> -8076
01> -7665
00> -8072
01> -7656
00> -8080
01> -7677
00> -8099
01> -7694
00> -8106
01> -7690
00> -8094
01> -7669
00> -8079
01> -7663
00> -8074
01> -7680
00> -8089
01> -7692
00> -8092
01> -7694
00> -8086
01> -7682
00> -8079
01> -7676
00> -8101
01> -7694
00> -8115
01> -7702
00> -8111
01> -7692
00> -8093
01> -7665
00> -8082
01> -7646
00> -8087
01> -7667
00> -8100
01> -7689
00> -8103
01> -7689
00> -8091
01> -7671
00> -8091
01> -7672
00> -8109
01> -7699
00> -8119
01> -7716
00> -8117
01> -7705
00> -8099
01> -7679
00> -8087
01> -7663
00> -8091
01> -7677
00> -8099
01> -7690
00> -8101
01> -7679
00> -8092
01> -7654
00> -8082
01> -7645
00> -8098
01> -7658
00> -8106
01> -7682
00> -8107
01> -7688
00> -8101
01> -7663
00> -8088
01> -7657
00> -8096
01> -7677
00> -8111
01> -7699
00> -8116
01> -7696
00> -8101
01> -7666
00> -8087
01> -7648
00> -8097
01> -7661
00> -8108
01> -7676
00> -8114
01> -7682
00> -8100
01> -7658
00> -8091
01> -7652
00> -8097
01> -7673
00> -8108
01> -7686
00> -8108
01> -7683
00> -8102
01> -7674
00> -8096
01> -7667
00> -8113
01> -7686
00> -8122
01> -7699
00> -8106
01> -7682
00> -8089
01> -7655
00> -8082
01> -7647
00> -8094
01> -7652
00> -8106
01> -7675
00> -8098
01> -7673
00> -8083
01> -7656
00> -8074
01> -7646
00> -8086
01> -7659
00> -8106
01> -7687
00> -8112
01> -7691
00> -8097
01> -7675
00> -8081
01> -7656
00> -8089
01> -7664
00> -8109
01> -7691
00> -8120
01> -7697
00> -8106
01> -7662
00> -8089
01> -7638
00> -8097
01> -7650
00> -8112
01> -7683
00> -8119
01> -7692
00> -8099
01> -7667
00> -8079
01> -7646
00> -8090
01> -7666
00> -8109
01> -7697
00> -8116
01> -7706
00> -8104
01> -7687
00> -8096
01> -7662
00> -8107
01> -7657
00> -8124
01> -7682
00> -8126
01> -7686
00> -8102
01> -7660
00> -8090
01> -7649
00> -8106
01> -7671
00> -8116
01> -7691
00> -8107
01> -7687
00> -8094
01> -7659
00> -8082
01> -7646
00> -8092
01> -7665
00> -8111
01> -7694
00> -8116
01> -7696
00> -8094
01> -7661
00> -8091
01> -7645
00> -8108
01> -7663
00> -8122
01> -7697
00> -8114
01> -7699
00> -8091
01> -7672
00> -8088
01> -7664
00> -8095
01> -7684
00> -8110
01> -7721
00> -8119
01> -7721
00> -8094
01> -7669
00> -8063
01> -7631
00> -8078
01> -7659
00> -8109
01> -7694
00> -8103
01> -7683
00> -8081
01> -7656
00> -8066
01> -7639
00> -8080
01> -7661
00> -8101
01> -7706
00> -8102
01> -7714
00> -8088
01> -7684
00> -8076
01> -7661
00> -8081
01> -7664
00> -8090
01> -7683
00> -8092
01> -7685
00> -8077
01> -7667
00> -8065
01> -7649
00> -8078
01> -7674
00> -8086
01> -7705
00> -8092
01> -7703
00> -8080
01> -7671
00> -8066
01> -7654
00> -8080
01> -7668
00> -8095
01> -7697
00> -8091
01> -7706
00> -8073
01> -7687
00> -8059
01> -7672
00> -8069
01> -7686
00> -8087
01> -7712
00> -8097
01> -7719
00> -8073
01> -7686
00> -8059
01> -7659
00> -8068
01> -7670
00> -8094
01> -7702

01> -7711
00> -8077
01> -7684
00> -8066
01> -7665
00> -8072
01> -7673
00> -8083
01> -7694
00> -8079
01> -7688
00> -8064
01> -7654
00> -8054
01> -7636
00> -8061
01> -7666
00> -8093
01> -7714
00> -8103
01> -7728
00> -8088
01> -7707
00> -8084
01> -7690
00> -8104
01> -7712
00> -8123
01> -7752
00> -8117
01> -7743
00> -8090
01> -7699
00> -8069
01> -7666
00> -8076
01> -7681
00> -8102
01> -7719
00> -8112
01> -7730
00> -8091
01> -7692
00> -8074
01> -7668
00> -8082
01> -7693
00> -8102
01> -7731
00> -8109
01> -7739
00> -8090
01> -7706
00> -8083
01> -7684
00> -8108
01> -7710
00> -8131
01> -7743
00> -8127
01> -7741
00> -8101
01> -7710
00> -8087
01> -7692
00> -8094
01> -7704
00> -8114
01> -7729
00> -8115
01> -7730
00> -8086
01> -7690
00> -8079
01> -7672
00> -8091
01> -7693
00> -8106
01> -7722
00> -8111
01> -7724
00> -8098
01> -7702
00> -8087
01> -7686
00> -8086
01> -7689
00> -8109
01> -7726
00> -8126
01> -7751
00> -8106
01> -7720
00> -8086
01> -7686
00> -8086
01> -7686
00> -8108
01> -7718
00> -8112
01> -7724
00> -8089
01> -7697
00> -8077
01> -7684
00> -8091
01> -7704
00> -8111
01> -7740
00> -8126
01> -7745
00> -8111
01> -7716
00> -8095
01> -7683
00> -8103
01> -7698
00> -8120
01> -7725
00> -8129
01> -7736
00> -8114
01> -7722
00> -8095
01> -7704
00> -8101
01> -7711
00> -8117
01> -7736
00> -8121
01> -7739
00> -8097
01> -7702
00> -8079
01> -7672
00> -8096
01> -7689
00> -8117
01> -7728
00> -8114
01> -7736
00> -8091
01> -7705
00> -8076
01> -7685
00> -8086
01> -7697
00> -8106
01> -7725
00> -8112
01> -7727
00> -8091
01> -7699
00> -8074
01> -7672
00> -8092
01> -7696
00> -8116
01> -7736
00> -8125
01> -7746
00> -8109
01> -7713
00> -8084
01> -7683
00> -8080
01> -7687
00> -8101
01> -7721
00> -8106
01> -7738
00> -8095
01> -7718
00> -8091
01> -7696
00> -8099
01> -7701
00> -8123
01> -7730
00> -8127
01> -7742
00> -8100
01> -7717
00> -8077
01> -7682
00> -8089
01> -7689
00> -8114
01> -7724
00> -8117
01> -7737
00> -8094
01> -7702
00> -8071
01> -7678
00> -8078
01> -7694
00> -8107
01> -7744
00> -8123
01> -7761
00> -8100
01> -7714
00> -8078
01> -7675
00> -8079
01> -7694
00> -8102
01> -7737
00> -8123
01> -7749
00> -8116
01> -7731
00> -8089
01> -7702
00> -8096
01> -7711
00> -8127
01> -7741
00> -8128
01> -7746
00> -8095
01> -7714
00> -8089
01> -7697
00> -8112
01> -7723
00> -8162
01> -7772
00> -8162
01> -7784
00> -8111
01> -7752
00> -8086
01> -7711
00> -8102
01> -7724
00> -8134
01> -7761
00> -8151
01> -7766
00> -8128
01> -7727
00> -8110
01> -7692
00> -8112
01> -7702
00> -8129
01> -7734
00> -8135
01> -7749
00> -8129
01> -7726
00> -8109
01> -7694
00> -8123
01> -7696
00> -8151
01> -7733
00> -8166
01> -7758
00> -8146
01> -7736
00> -8130
01> -7701
00> -8137
01> -7711
00> -8149
01> -7759
00> -8157
01> -7773
00> -8131
01> -7732
00> -8102
01> -7682
00> -8117
01> -7694
00> -8147
01> -7742
00> -8164
01> -7771
00> -8155
01> -7749
00> -8130
01> -7718
00> -8126
01> -7719
00> -8147
01> -7754
00> -8172
01> -7772
00> -8149
01> -7744
00> -8127
01> -7711
00> -8141
01> -7726
00> -8156
01> -7759
00> -8151
01> -7758
00> -8135
01> -7728
00> -8134
01> -7712
00> -8137
01> -7717
00> -8143
01> -7749
00> -8157
01> -7776
00> -8157
01> -7762
00> -8144
01> -7732
00> -8146
01> -7733
00> -8156
01> -7761
00> -8156
01> -7761
00> -8142
01> -7731
00> -8131
01> -7709
00> -8132
01> -7724
00> -8152
01> -7756
00> -8161
01> -7764
00> -8150
01> -7735
00> -8132
01> -7709
00> -8142
01> -7722
00> -8170
01> -7762
00> -8171
01> -7775
00> -8151
01> -7742
00> -8144
01> -7718
00> -8151
01> -7729
00> -8167
01> -7756
00> -8162
01> -7764
00> -8162
01> -7752
00> -8146
01> -7732
00> -8158
01> -7741
00> -8176
01> -7765
00> -8176
01> -7774
00> -8159
01> -7744
00> -8144
01> -7714
00> -8149
01> -7728
00> -8174
01> -7769
00> -8183
01> -7784
00> -8167
01> -7759
00> -8141
01> -7720
00> -8161
01> -7733
00> -8189
01> -7775
00> -8190
01> -7784
00> -8170
01> -7762
00> -8157
01> -7741
00> -8166
01> -7751
00> -8179
01> -7771
00> -8171
01> -7764
00> -8150
01> -7733
00> -8149
01> -7722
00> -8164
01> -7734
00> -8184
01> -7767
00> -8186
01> -7786
00> -8154
01> -7759
00> -8119
01> -7709
00> -8127
01> -7703
00> -8145
01> -7726
00> -8152
01> -7743
00> -8144
01> -7726
00> -8129
01> -7701
00> -8137
01> -7718
00> -8163
01> -7767
00> -8176
01> -7782
00> -8153
01> -7749
00> -8124
01> -7721
00> -8125
01> -7716
00> -8147
01> -7738
00> -8162
01> -7754
00> -8149
01> -7726
00> -8136
01> -7716
00> -8149
01> -7736
00> -8166
01> -7766
00> -8172
01> -7779
00> -8156
01> -7742
00> -8136
01> -7701
00> -8143
01> -7714
00> -8179
01> -7765
00> -8197
01> -7798
00> -8191
01> -7785
00> -8166
01> -7757
00> -8166
01> -7763
00> -8189
01> -7780
00> -8190
01> -7773
00> -8164
01> -7746
00> -8146
01> -7732
00> -8147
01> -7742
00> -8176
01> -7777
00> -8196
01> -7792
00> -8181
01> -7770
00> -8172
01> -7741
00> -8164
01> -7739
00> -8188
01> -7771
00> -8204
01> -7788
00> -8182
01> -7771
00> -8154
01> -7741
00> -8147
01> -7730
00> -8158
01> -7746
00> -8172
01> -7765
00> -8177
01> -7752
00> -8168
01> -7729
00> -8161
01> -7730
00> -8176
01> -7761
00> -8188
01> -7776
00> -8171
01> -7753
00> -8141
01> -7725
00> -8143
01> -7730
00> -8170
01> -7764
00> -8179
01> -7776
00> -8168
01> -7750
00> -8146
01> -7721
00> -8140
01> -7718
00> -8161
01> -7746
00> -8182
01> -7766
00> -8175
01> -7754
00> -8156
01> -7733
00> -8157
01> -7745
00> -8178
01> -7769
00> -8176
01> -7766
00> -8151
01> -7739
00> -8132
01> -7717
00> -8153
01> -7736
00> -8187
01> -7773
00> -8197
01> -7787
00> -8189
01> -7786
00> -8166
01> -7759
00> -8152
01> -7751
00> -8165
01> -7766
00> -8179
01> -7774
00> -8191
01> -7766
00> -8167
01> -7749
00> -8169
01> -7749
00> -8182
01> -7770
00> -8179
01> -7776
00> -8157
01> -7757
00> -8146
01> -7734
00> -8164
01> -7751
00> -8194
01> -7798
00> -8196
01> -7807
00> -8179
01> -7783
00> -8160
01> -7752
00> -8161
01> -7742
00> -8169
01> -7767
00> -8186
01> -7789
00> -8187
01> -7785
00> -8163
01> -7757
00> -8161
01> -7763
00> -8180
01> -7791
00> -8180
01> -7796
00> -8163
01> -7769
00> -8146
01> -7736
00> -8152
01> -7743
00> -8169
01> -7771
00> -8177
01> -7787
00> -8172
01> -7783
00> -8164
01> -7763
00> -8156
01> -7748
00> -8169
01> -7764
00> -8187
01> -7784
00> -8173
01> -7775
00> -8163
01> -7766
00> -8169
01> -7771
00> -8187
01> -7797
00> -8196
01> -7821
00> -8187
01> -7800
00> -8157
01> -7752
00> -8150
01> -7743
00> -8172
01> -7771
00> -8187
01> -7786
00> -8181
01> -7776
00> -8168
01> -7759
00> -8164
01> -7761
00> -8184
01> -7794
00> -8201
01> -7813
00> -8192
01> -7796
00> -8175
01> -7766
00> -8176
01> -7759
00> -8187
01> -7792
00> -8193
01> -7809
00> -8183
01> -7796
00> -8167
01> -7777
00> -8161
01> -7762
00> -8169
01> -7772
00> -8181
01> -7786
00> -8164
01> -7772
00> -8151
01> -7759
00> -8155
01> -7760
00> -8180
01> -7774
00> -8194
01> -7794
00> -8168
01> -7794
00> -8147
01> -7769
00> -8146
01> -7757
00> -8168
01> -7771
00> -8186
01> -7777
00> -8197
01> -7770
00> -8181
01> -7752
00> -8166
01> -7759
00> -8168
01> -7781
00> -8170
01> -7793
00> -8165
01> -7794
00> -8166
01> -7773
00> -8164
01> -7772
00> -8177
01> -7797
00> -8184
01> -7807
00> -8165
01> -7784
00> -8144
01> -7751
00> -8147
01> -7748
00> -8164
01> -7789
00> -8190
01> -7827
00> -8182
01> -7814
00> -8160
01> -7787
00> -8146
01> -7774
00> -8160
01> -7786
00> -8172
01> -7802
00> -8169
01> -7794
00> -8149
01> -7780
00> -8154
01> -7784
00> -8164
01> -7806
00> -8167
01> -7811
00> -8165
01> -7806
00> -8159
01> -7781
00> -8145
01> -7771
00> -8152
01> -7793
00> -8171
01> -7810
00> -8167
01> -7807
00> -8147
01> -7781
00> -8160
01> -7777
00> -8183
01> -7802
00> -8184
01> -7816
00> -8172
01> -7807
00> -8149
01> -7786
00> -8133
01> -7768
00> -8144
01> -7783
00> -8157
01> -7806
00> -8156
01> -7808
00> -8141
01> -7781
00> -8144
01> -7784
00> -8171
01> -7816
00> -8181
01> -7831
00> -8168
01> -7816
00> -8154
01> -7780
00> -8142
01> -7762
00> -8149
01> -7780
00> -8162
01> -7802
00> -8149
01> -7784
00> -8137
01> -7773
00> -8137
01> -7773
00> -8164
01> -7799
00> -8164
01> -7811
00> -8144
01> -7794
00> -8137
01> -7767
00> -8149
01> -7774
00> -8171
01> -7805
00> -8180
01> -7835
00> -8164
01> -7821
00> -8139
01> -7776
00> -8128
01> -7766
00> -8136
01> -7787
00> -8146
01> -7814
00> -8150
01> -7813
00> -8144
01> -7790
00> -8143
01> -7772
00> -8155
01> -7783
00> -8167
01> -7816
00> -8169
01> -7822
00> -8145
01> -7802
00> -8137
01> -7792
00> -8156
01> -7818
00> -8175
01> -7842
00> -8162
01> -7832
00> -8140
01> -7800
00> -8145
01> -7784
00> -8167
01> -7807
00> -8182
01> -7834
00> -8171
01> -7827
00> -8151
01> -7799
00> -8146
01> -7794
00> -8156
01> -7811
00> -8166
01> -7830
00> -8174
01> -7831
00> -8159
01> -7806
00> -8158
01> -7799
00> -8167
01> -7812
00> -8172
01> -7822
00> -8162
01> -7813
00> -8142
01> -7783
00> -8130
01> -7772
00> -8144
01> -7797
00> -8167
01> -7831
00> -8171
01> -7838
00> -8157
01> -7812
00> -8146
01> -7798
00> -8154
01> -7826
00> -8169
01> -7851
00> -8162
01> -7838
00> -8149
01> -7804
00> -8155
01> -7808
00> -8179
01> -7842
00> -8182
01> -7854
00> -8161
01> -7826
00> -8129
01> -7779
00> -8124
01> -7769
00> -8144
01> -7794
00> -8168
01> -7824
00> -8169
01> -7828
00> -8147
01> -7806
00> -8136
01> -7794
00> -8152
01> -7806
00> -8167
01> -7822
00> -8160
01> -7811
00> -8159
01> -7799
00> -8164
01> -7792
00> -8172
01> -7812
00> -8174
01> -7834
00> -8162
01> -7827
00> -8149
01> -7802
00> -8133
01> -7793
00> -8141
01> -7814
00> -8170
01> -7842
00> -8181
01> -7837
00> -8161
01> -7802
00> -8146
01> -7779
00> -8152
01> -7788
00> -8162
01> -7813
00> -8164
01> -7823
00> -8156
01> -7809
00> -8152
01> -7802
00> -8162
01> -7816
00> -8177
01> -7841
00> -8167
01> -7829
00> -8151
01> -7797
00> -8144
01> -7789
00> -8164
01> -7814
00> -8188
01> -7851
00> -8186
01> -7843
00> -8157
01> -7810
00> -8145
01> -7800
00> -8161
01> -7824
00> -8168
01> -7835
00> -8163
01> -7826
00> -8156
01> -7812
00> -8155
01> -7810
00> -8169
01> -7834
00> -8182
01> -7846
00> -8174
01> -7832
00> -8159
01> -7808
00> -8157
01> -7807
00> -8165
01> -7842
00> -8177
01> -7871
00> -8164
01> -7844
00> -8142
01> -7789
00> -8139
01> -7771
00> -8156
01> -7797

01> -7832
00> -8171
01> -7837
00> -8159
01> -7817
00> -8138
01> -7808
00> -8146
01> -7819
00> -8171
01> -7838
00> -8163
01> -7839
00> -8151
01> -7819
00> -8154
01> -7809
00> -8163
01> -7819
00> -8171
01> -7835
00> -8169
01> -7829
00> -8151
01> -7801
00> -8136
01> -7786
00> -8151
01> -7819
00> -8173
01> -7856
00> -8174
01> -7852
00> -8161
01> -7825
00> -8151
01> -7813
00> -8158
01> -7832
00> -8176
01> -7857
00> -8176
01> -7844
00> -8170
01> -7817
00> -8156
01> -7817
00> -8166
01> -7844
00> -8181
01> -7862
00> -8179
01> -7852
00> -8161
01> -7818
00> -8144
01> -7806
00> -8149
01> -7819
00> -8164
01> -7840
00> -8169
01> -7833
00> -8155
01> -7812
00> -8151
01> -7817
00> -8176
01> -7849
00> -8197
01> -7869
00> -8192
01> -7858
00> -8171
01> -7825
00> -8154
01> -7807
00> -8164
01> -7826
00> -8186
01> -7851
00> -8188
01> -7851
00> -8167
01> -7834
00> -8162
01> -7825
00> -8175
01> -7849
00> -8189
01> -7858
00> -8182
01> -7844
00> -8162
01> -7821
00> -8164
01> -7814
00> -8178
01> -7834
00> -8186
01> -7858
00> -8183
01> -7861
00> -8163
01> -7838
00> -8159
01> -7819
00> -8163
01> -7829
00> -8178
01> -7854
00> -8189
01> -7856
00> -8179
01> -7833
00> -8177
01> -7822
00> -8186
01> -7841
00> -8187
01> -7854
00> -8180
01> -7840
00> -8163
01> -7817
00> -8157
01> -7808
00> -8175
01> -7823
00> -8182
01> -7841
00> -8177
01> -7836
00> -8174
01> -7817
00> -8177
01> -7822
00> -8186
01> -7847
00> -8194
01> -7862
00> -8181
01> -7837
00> -8162
01> -7806
00> -8159
01> -7802
00> -8179
01> -7825
00> -8199
01> -7856
00> -8193
01> -7855
00> -8168
01> -7828
00> -8161
01> -7815
00> -8167
01> -7830
00> -8167
01> -7839
00> -8151
01> -7818
00> -8139
01> -7791
00> -8141
01> -7792
00> -8159
01> -7819
00> -8177
01> -7842
00> -8177
01> -7849
00> -8156
01> -7820
00> -8139
01> -7792
00> -8156
01> -7804
00> -8187
01> -7837
00> -8198
01> -7854
00> -8179
01> -7837
00> -8172
01> -7821
00> -8186
01> -7834
00> -8198
01> -7857
00> -8190
01> -7844
00> -8159
01> -7805
00> -8149
01> -7782
00> -8165
01> -7802
00> -8177
01> -7832
00> -8174
01> -7835
00> -8156
01> -7813
00> -8153
01> -7807
00> -8165
01> -7828
00> -8184
01> -7854
00> -8185
01> -7839
00> -8158
01> -7799
00> -8147
01> -7777
00> -8160
01> -7791
00> -8181
01> -7826
00> -8192
01> -7848
00> -8179
01> -7832
00> -8162
01> -7814
00> -8160
01> -7827
00> -8178
01> -7854
00> -8185
01> -7852
00> -8173
01> -7834
00> -8155
01> -7826
00> -8171
01> -7841
00> -8186
01> -7853
00> -8181
01> -7843
00> -8169
01> -7821
00> -8159
01> -7811
00> -8169
01> -7824
00> -8194
01> -7855
00> -8192
01> -7862
00> -8172
01> -7828
00> -8156
01> -7800
00> -8173
01> -7826
00> -8193
01> -7857
00> -8191
01> -7867
00> -8177
01> -7843
00> -8168
01> -7819
00> -8189
01> -7831
00> -8207
01> -7863
00> -8187
01> -7847
00> -8156
01> -7807
00> -8152
01> -7799
00> -8169
01> -7827
00> -8188
01> -7856
00> -8196
01> -7861
00> -8178
01> -7834
00> -8159
01> -7806
00> -8169
01> -7823
00> -8187
01> -7853
00> -8194
01> -7864
00> -8186
01> -7847
00> -8168
01> -7819
00> -8172
01> -7821
00> -8184
01> -7841
00> -8185
01> -7842
00> -8175
01> -7821
00> -8179
01> -7811
00> -8189
01> -7832
00> -8204
01> -7866
00> -8203
01> -7860
00> -8176
01> -7811
00> -8158
01> -7789
00> -8178
01> -7827
00> -8204
01> -7855
00> -8198
01> -7847
00> -8183
01> -7827
00> -8175
01> -7812
00> -8181
01> -7823
00> -8206
01> -7860
00> -8205
01> -7867
00> -8179
01> -7828
00> -8179
01> -7811
00> -8195
01> -7831
00> -8207
01> -7861
00> -8204
01> -7857
00> -8190
01> -7829
00> -8171
01> -7811
00> -8172
01> -7825
00> -8194
01> -7862
00> -8206
01> -7868
00> -8189
01> -7842
00> -8175
01> -7811
00> -8178
01> -7814
00> -8195
01> -7848
00> -8204
01> -7862
00> -8201
01> -7844
00> -8199
01> -7830
00> -8211
01> -7842
00> -8223
01> -7877
00> -8215
01> -7878
00> -8188
01> -7841
00> -8169
01> -7806
00> -8186
01> -7834
00> -8213
01> -7873
00> -8221
01> -7875
00> -8205
01> -7844
00> -8193
01> -7824
00> -8201
01> -7844
00> -8211
01> -7867
00> -8210
01> -7862
00> -8192
01> -7828
00> -8182
01> -7806
00> -8186
01> -7822
00> -8203
01> -7874
00> -8216
01> -7891
00> -8199
01> -7858
00> -8178
01> -7836
00> -8184
01> -7843
00> -8194
01> -7859
00> -8194
01> -7870
00> -8182
01> -7852
00> -8177
01> -7830
00> -8196
01> -7838
00> -8224
01> -7867
00> -8212
01> -7867
00> -8186
01> -7841
00> -8176
01> -7820
00> -8183
01> -7831
00> -8196
01> -7859
00> -8208
01> -7869
00> -8204
01> -7848
00> -8194
01> -7836
00> -8199
01> -7849
00> -8216
01> -7879
00> -8216
01> -7884
00> -8190
01> -7848
00> -8156
01> -7799
00> -8169
01> -7811
00> -8201
01> -7856
00> -8211
01> -7862
00> -8198
01> -7844
00> -8182
01> -7823
00> -8184
01> -7838
00> -8192
01> -7858
00> -8200
01> -7859
00> -8187
01> -7836
00> -8189
01> -7824
00> -8190
01> -7834
00> -8204
01> -7863
00> -8197
01> -7865
00> -8168
01> -7828
00> -8154
01> -7809
00> -8176
01> -7824
00> -8198
01> -7860
00> -8201
01> -7870
00> -8179
01> -7842
00> -8166
01> -7826
00> -8175
01> -7838
00> -8195
01> -7858
00> -8199
01> -7868
00> -8179
01> -7849
00> -8166
01> -7834
00> -8175
01> -7845
00> -8197
01> -7865
00> -8206
01> -7879
00> -8192
01> -7856
00> -8173
01> -7834
00> -8185
01> -7849
00> -8196
01> -7869
00> -8201
01> -7872
00> -8189
01> -7849
00> -8187
01> -7832
00> -8197
01> -7857
00> -8217
01> -7898
00> -8214
01> -7905
00> -8189
01> -7869
00> -8170
01> -7834
00> -8191
01> -7842
00> -8214
01> -7879
00> -8219
01> -7887
00> -8195
01> -7855
00> -8172
01> -7829
00> -8181
01> -7852
00> -8206
01> -7892
00> -8207
01> -7902
00> -8194
01> -7876
00> -8179
01> -7847
00> -8175
01> -7848
00> -8192
01> -7878
00> -8203
01> -7894
00> -8189
01> -7880
00> -8176
01> -7867
00> -8187
01> -7874
00> -8202
01> -7897
00> -8202
01> -7901
00> -8188
01> -7872
00> -8182
01> -7844
00> -8183
01> -7857
00> -8197
01> -7891
00> -8197
01> -7892
00> -8177
01> -7864
00> -8157
01> -7835
00> -8167
01> -7839
00> -8191
01> -7876
00> -8206
01> -7891
00> -8196
01> -7874
00> -8184
01> -7856
00> -8184
01> -7868
00> -8204
01> -7894
00> -8211
01> -7895
00> -8189
01> -7865
00> -8171
01> -7837
00> -8180
01> -7847
00> -8196
01> -7873
00> -8197
01> -7882
00> -8186
01> -7859
00> -8159
01> -7833
00> -8155
01> -7831
00> -8177
01> -7856
00> -8185
01> -7862
00> -8159
01> -7825
00> -8149
01> -7812
00> -8162
01> -7821
00> -8157
01> -7825
00> -8125
01> -7808
00> -8098
01> -7762
00> -8072
01> -7713
00> -8065
01> -7700
00> -8071
01> -7707
00> -8071
01> -7696
00> -8034
01> -7635
00> -8006
01> -7587
00> -7999
01> -7568
00> -7997
01> -7567
00> -7990
01> -7541
00> -7967
01> -7485
00> -7946
01> -7442
00> -7944
01> -7441
00> -7952
01> -7461
00> -7954
01> -7457
00> -7942
01> -7442
00> -7932
01> -7427
00> -7947
01> -7427
00> -7961
01> -7440
00> -7970
01> -7450
00> -7972
01> -7434
00> -7958
01> -7427
00> -7962
01> -7446
00> -7980
01> -7489
00> -8011
01> -7530
00> -8016
01> -7522
00> -8004
01> -7498
00> -8011
01> -7516
00> -8031
01> -7556
00> -8042
01> -7584
00> -8031
01> -7587
00> -8028
01> -7581
00> -8046
01> -7601
00> -8071
01> -7641
00> -8082
01> -7670
00> -8074
01> -7656
00> -8058
01> -7634
00> -8062
01> -7642
00> -8084
01> -7679
00> -8101
01> -7706
00> -8089
01> -7699
00> -8079
01> -7686
00> -8099
01> -7710
00> -8127
01> -7751
00> -8139
01> -7782
00> -8119
01> -7760
00> -8106
01> -7728
00> -8113
01> -7729
00> -8139
01> -7774
00> -8162
01> -7811
00> -8152
01> -7799
00> -8138
01> -7769
00> -8136
01> -7776
00> -8152
01> -7804
00> -8161
01> -7819
00> -8154
01> -7808
00> -8154
01> -7800
00> -8170
01> -7818
00> -8191
01> -7847
00> -8186
01> -7847
00> -8159
01> -7812
00> -8152
01> -7799
00> -8172
01> -7827
00> -8200
01> -7867
00> -8214
01> -7877
00> -8201
01> -7855
00> -8172
01> -7821
00> -8175
01> -7826
00> -8190
01> -7862
00> -8192
01> -7878
00> -8181
01> -7861
00> -8168
01> -7837
00> -8170
01> -7842
00> -8189
01> -7868
00> -8201
01> -7885
00> -8184
01> -7862
00> -8171
01> -7829
00> -8183
01> -7842
00> -8199
01> -7863
00> -8201
01> -7872
00> -8197
01> -7867
00> -8180
01> -7846
00> -8174
01> -7844
00> -8187
01> -7861
00> -8197
01> -7872
00> -8187
01> -7859
00> -8182
01> -7845
00> -8192
01> -7855
00> -8207
01> -7876
00> -8212
01> -7882
00> -8197
01> -7859
00> -8177
01> -7832
00> -8179
01> -7838
00> -8206
01> -7879
00> -8222
01> -7905
00> -8211
01> -7892
00> -8189
01> -7859
00> -8189
01> -7855
00> -8222
01> -7899
00> -8242
01> -7919
00> -8221
01> -7889
00> -8191
01> -7848
00> -8191
01> -7849
00> -8205
01> -7885
00> -8222
01> -7905
00> -8220
01> -7899
00> -8197
01> -7874
00> -8199
01> -7862
00> -8205
01> -7863
00> -8208
01> -7879
00> -8209
01> -7872
00> -8199
01> -7852
00> -8204
01> -7860
00> -8217
01> -7886
00> -8216
01> -7897
00> -8194
01> -7879
00> -8180
01> -7857
00> -8186
01> -7857
00> -8202
01> -7877
00> -8212
01> -7896
00> -8210
01> -7888
00> -8189
01> -7860
00> -8179
01> -7852
00> -8199
01> -7881
00> -8201
01> -7891
00> -8192
01> -7874
00> -8186
01> -7849
00> -8187
01> -7842
00> -8207
01> -7871
00> -8226
01> -7891
00> -8217
01> -7877
00> -8189
01> -7859
00> -8182
01> -7856
00> -8198
01> -7866
00> -8218
01> -7882
00> -8217
01> -7874
00> -8197
01> -7851
00> -8186
01> -7858
00> -8197
01> -7880
00> -8216
01> -7894
00> -8207
01> -7881
00> -8190
01> -7852
00> -8190
01> -7842
00> -8206
01> -7865
00> -8221
01> -7884
00> -8210
01> -7864
00> -8196
01> -7843
00> -8201
01> -7847
00> -8213
01> -7878
00> -8218
01> -7891
00> -8217
01> -7883
00> -8212
01> -7864
00> -8216
01> -7869
00> -8232
01> -7897
00> -8238
01> -7911
00> -8224
01> -7899
00> -8205
01> -7862
00> -8194
01> -7849
00> -8202
01> -7879
00> -8219
01> -7904
00> -8211
01> -7892
00> -8201
01> -7869
00> -8207
01> -7879
00> -8226
01> -7909
00> -8228
01> -7924
00> -8214
01> -7908
00> -8197
01> -7871
00> -8192
01> -7856
00> -8202
01> -7881
00> -8224
01> -7906
00> -8222
01> -7897
00> -8200
01> -7869
00> -8196
01> -7868
00> -8209
01> -7890
00> -8216
01> -7901
00> -8207
01> -7884
00> -8192
01> -7861
00> -8197
01> -7867
00> -8219
01> -7902
00> -8229
01> -7919
00> -8215
01> -7897
00> -8193
01> -7862
00> -8198
01> -7852
00> -8224
01> -7889
00> -8242
01> -7925
00> -8231
01> -7916
00> -8209
01> -7886
00> -8211
01> -7879
00> -8231
01> -7898
00> -8239
01> -7919
00> -8222
01> -7909
00> -8206
01> -7885
00> -8211
01> -7885
00> -8236
01> -7917
00> -8249
01> -7939
00> -8240
01> -7925
00> -8209
01> -7897
00> -8192
01> -7882
00> -8201
01> -7895
00> -8217
01> -7914
00> -8226
01> -7912
00> -8219
01> -7899
00> -8221
01> -7900
00> -8235
01> -7926
00> -8241
01> -7937
00> -8232
01> -7913
00> -8201
01> -7875
00> -8191
01> -7864
00> -8213
01> -7897
00> -8242
01> -7929
00> -8239
01> -7912
00> -8214
01> -7884
00> -8215
01> -7886
00> -8227
01> -7911
00> -8224
01> -7917
00> -8209
01> -7896
00> -8202
01> -7877
00> -8208
01> -7878
00> -8229
01> -7906
00> -8246
01> -7930
00> -8233
01> -7921
00> -8209
01> -7884
00> -8196
01> -7864
00> -8215
01> -7882
00> -8231
01> -7900
00> -8229
01> -7890
00> -8208
01> -7866
00> -8208
01> -7867
00> -8224
01> -7894
00> -8232
01> -7924
00> -8224
01> -7919
00> -8210
01> -7890
00> -8206
01> -7870
00> -8211
01> -7878
00> -8236
01> -7911
00> -8236
01> -7904
00> -8213
01> -7877
00> -8212
01> -7872
00> -8225
01> -7896
00> -8241
01> -7916
00> -8233
01> -7915
00> -8209
01> -7892
00> -8202
01> -7883
00> -8209
01> -7909
00> -8225
01> -7926
00> -8216
01> -7918
00> -8198
01> -7896
00> -8191
01> -7887
00> -8209
01> -7914
00> -8225
01> -7943
00> -8220
01> -7932
00> -8206
01> -7907
00> -8216
01> -7914
00> -8239
01> -7947
00> -8247
01> -7962
00> -8231
01> -7943
00> -8209
01> -7908
00> -8195
01> -7892
00> -8217
01> -7919
00> -8238
01> -7945
00> -8226
01> -7937
00> -8207
01> -7908
00> -8204
01> -7889
00> -8219
01> -7906
00> -8233
01> -7922
00> -8219
01> -7909
00> -8197
01> -7884
00> -8202
01> -7882
00> -8219
01> -7911
00> -8232
01> -7933
00> -8229
01> -7926
00> -8211
01> -7889
00> -8199
01> -7877
00> -8217
01> -7909
00> -8230
01> -7942
00> -8224
01> -7935
00> -8207
01> -7904
00> -8207
01> -7897
00> -8224
01> -7926
00> -8237
01> -7949
00> -8227
01> -7937
00> -8197
01> -7897
00> -8185
01> -7886
00> -8199
01> -7909
00> -8211
01> -7934
00> -8211
01> -7933
00> -8207
01> -7913
00> -8200
01> -7906
00> -8211
01> -7927
00> -8229
01> -7956
00> -8224
01> -7949
00> -8197
01> -7920
00> -8186
01> -7905
00> -8203
01> -7924
00> -8221
01> -7947
00> -8220
01> -7953
00> -8207
01> -7921
00> -8194
01> -7905
00> -8201
01> -7923
00> -8206
01> -7936
00> -8203
01> -7913
00> -8187
01> -7878
00> -8187
01> -7883
00> -8205
01> -7918
00> -8226
01> -7945
00> -8226
01> -7946
00> -8207
01> -7912
00> -8202
01> -7895
00> -8225
01> -7922
00> -8237
01> -7949
00> -8224
01> -7944
00> -8193
01> -7906
00> -8184
01> -7885
00> -8195
01> -7907
00> -8212
01> -7931
00> -8217
01> -7936
00> -8201
01> -7912
00> -8198
01> -7905
00> -8224
01> -7932
00> -8244
01> -7954
00> -8235
01> -7938
00> -8217
01> -7908
00> -8209
01> -7894
00> -8222
01> -7917
00> -8237
01> -7953
00> -8236
01> -7955
00> -8214
01> -7927
00> -8201
01> -7915
00> -8216
01> -7940
00> -8226
01> -7960
00> -8227
01> -7952
00> -8213
01> -7925
00> -8206
01> -7909
00> -8215
01> -7935
00> -8235
01> -7969
00> -8224
01> -7952
00> -8194
01> -7926
00> -8191
01> -7912
00> -8209
01> -7934
00> -8232
01> -7972
00> -8226
01> -7962
00> -8194
01> -7914
00> -8186
01> -7892
00> -8206
01> -7916
00> -8222
01> -7952
00> -8217
01> -7954
00> -8192
01> -7917
00> -8184
01> -7895
00> -8198
01> -7912
00> -8209
01> -7946
00> -8208
01> -7945
00> -8199
01> -7918
00> -8202
01> -7910
00> -8214
01> -7923
00> -8224
01> -7944
00> -8214
01> -7941
00> -8196
01> -7911
00> -8186
01> -7896
00> -8200
01> -7919
00> -8224
01> -7941
00> -8221
01> -7937
00> -8199
01> -7911
00> -8193
01> -7899
00> -8201
01> -7913
00> -8217
01> -7937
00> -8223
01> -7929
00> -8195
01> -7902
00> -8192
01> -7895
00> -8200
01> -7912
00> -8207
01> -7932
00> -8209
01> -7928
00> -8201
01> -7903
00> -8186
01> -7881
00> -8196
01> -7897
00> -8209
01> -7917
00> -8207
01> -7917
00> -8199
01> -7901
00> -8194
01> -7899
00> -8204
01> -7913
00> -8215
01> -7931
00> -8217
01> -7926
00> -8191
01> -7891
00> -8181
01> -7882
00> -8191
01> -7914
00> -8205
01> -7945
00> -8209
01> -7941
00> -8190
01> -7901
00> -8174
01> -7881
00> -8181
01> -7899
00> -8194
01> -7922
00> -8203
01> -7924
00> -8202
01> -7907
00> -8205
01> -7898
00> -8220
01> -7915
00> -8231
01> -7932
00> -8222
01> -7923
00> -8196
01> -7894
00> -8182
01> -7882
00> -8201
01> -7899
00> -8214
01> -7923
00> -8207
01> -7920
00> -8191
01> -7901
00> -8189
01> -7887
00> -8197
01> -7898
00> -8206
01> -7921
00> -8207
01> -7930
00> -8201
01> -7923
00> -8196
01> -7908
00> -8202
01> -7916
00> -8216
01> -7929
00> -8213
01> -7922
00> -8195
01> -7892
00> -8184
01> -7877
00> -8197
01> -7892
00> -8215
01> -7919
00> -8214
01> -7917
00> -8199
01> -7885
00> -8195
01> -7876
00> -8215
01> -7911
00> -8234
01> -7942
00> -8221
01> -7932
00> -8201
01> -7892
00> -8179
01> -7861
00> -8186
01> -7879
00> -8213
01> -7916
00> -8226
01> -7919
00> -8201
01> -7898
00> -8188
01> -7886
00> -8194
01> -7900
00> -8201
01> -7927
00> -8201
01> -7932
00> -8195
01> -7909
00> -8182
01> -7889
00> -8192
01> -7899
00> -8206
01> -7917
00> -8208
01> -7922
00> -8198
01> -7909
00> -8197
01> -7892
00> -8206
01> -7897
00> -8219
01> -7912
00> -8215
01> -7916
00> -8194
01> -7899
00> -8182
01> -7882
00> -8199
01> -7888
00> -8215
01> -7912
00> -8204
01> -7907
00> -8182
01> -7874
00> -8181
01> -7860
00> -8195
01> -7871
00> -8216
01> -7902
00> -8214
01> -7903
00> -8201
01> -7886
00> -8188
01> -7862
00> -8188
01> -7866
00> -8207
01> -7897
00> -8223
01> -7910
00> -8214
01> -7895
00> -8201
01> -7880
00> -8206
01> -7886
00> -8216
01> -7902
00> -8211
01> -7903
00> -8188
01> -7871
00> -8182
01> -7859
00> -8199
01> -7877
00> -8216
01> -7904
00> -8214
01> -7907
00> -8206
01> -7893
00> -8198
01> -7877
00> -8207
01> -7882
00> -8217
01> -7902
00> -8212
01> -7903
00> -8191
01> -7875
00> -8180
01> -7859
00> -8188
01> -7869
00> -8206
01> -7899
00> -8206
01> -7901
00> -8185
01> -7869
00> -8172
01> -7851
00> -8184
01> -7871
00> -8206
01> -7904
00> -8206
01> -7907
00> -8194
01> -7881
00> -8179
01> -7859
00> -8187
01> -7869
00> -8201
01> -7890
00> -8198
01> -7893
00> -8185
01> -7873
00> -8178
01> -7862
00> -8192
01> -7889
00> -8212
01> -7917
00> -8208
01> -7911
00> -8180
01> -7877
00> -8174
01> -7858
00> -8187
01> -7869
00> -8204
01> -7892
00> -8198
01> -7892
00> -8177
01> -7868
00> -8169
01> -7851
00> -8177
01> -7865
00> -8195
01> -7892
00> -8197
01> -7898
00> -8176
01> -7861
00> -8164
01> -7836
00> -8176
01> -7854
00> -8198
01> -7893
00> -8191
01> -7891
00> -8171
01> -7859
00> -8160
01> -7839
00> -8171
01> -7863
00> -8194
01> -7906
00> -8199
01> -7909
00> -8176
01> -7869
00> -8166
01> -7844
00> -8165
01> -7846
00> -8180
01> -7866
00> -8191
01> -7876
00> -8179
01> -7861
00> -8167
01> -7842
00> -8181
01> -7861
00> -8204
01> -7896
00> -8199
01> -7900
00> -8181
01> -7874
00> -8170
01> -7854
00> -8175
01> -7860
00> -8193
01> -7886
00> -8204
01> -7899
00> -8180
01> -7872
00> -8160
01> -7844
00> -8167
01> -7859
00> -8188
01> -7893
00> -8193
01> -7899
00> -8184
01> -7876
00> -8169
01> -7856
00> -8179
01> -7865
00> -8204
01> -7896
00> -8217
01> -7913
00> -8199
01> -7887
00> -8181
01> -7852
00> -8181
01> -7859
00> -8194
01> -7887
00> -8203
01> -7897
00> -8197
01> -7876
00> -8184
01> -7854
00> -8197
01> -7871
00> -8207
01> -7896
00> -8199
01> -7888
00> -8176
01> -7856
00> -8172
01> -7838
00> -8184
01> -7854
00> -8203
01> -7894
00> -8209
01> -7903
00> -8194
01> -7876
00> -8185
01> -7856
00> -8196
01> -7867
00> -8209
01> -7891
00> -8211
01> -7892
00> -8196
01> -7866
00> -8185
01> -7847
00> -8201
01> -7864
00> -8221
01> -7898
00> -8226
01> -7905
00> -8204
01> -7876
00> -8194
01> -7861
00> -8200
01> -7876
00> -8214
01> -7898
00> -8222
01> -7906
00> -8206
01> -7881
00> -8193
01> -7859
00> -8201
01> -7860
00> -8216
01> -7891
00> -8220
01> -7911
00> -8211
01> -7891
00> -8194
01> -7866
00> -8199
01> -7865
00> -8216
01> -7890
00> -8214
01> -7896
00> -8198
01> -7879
00> -8182
01> -7852
00> -8187
01> -7854
00> -8208
01> -7881
00> -8207
01> -7898
00> -8191
01> -7879
00> -8181
01> -7857
00> -8191
01> -7863
00> -8207
01> -7882
00> -8208
01> -7881
00> -8187
01> -7857
00> -8177
01> -7846
00> -8186
01> -7860
00> -8207
01> -7890
00> -8212
01> -7895
00> -8183
01> -7869
00> -8170
01> -7849
00> -8186
01> -7871
00> -8212
01> -7904
00> -8216
01> -7910
00> -8194
01> -7880
00> -8170
01> -7849
00> -8168
01> -7854
00> -8191
01> -7886
00> -8204
01> -7907
00> -8192
01> -7896
00> -8190
01> -7881
00> -8195
01> -7884
00> -8214
01> -7906
00> -8214
01> -7902
00> -8197
01> -7882
00> -8172
01> -7859
00> -8180
01> -7867
00> -8199
01> -7896
00> -8215
01> -7922
00> -8205
01> -7899
00> -8185
01> -7871
00> -8181
01> -7871
00> -8195
01> -7895
00> -8204
01> -7910
00> -8199
01> -7898
00> -8185
01> -7877
00> -8187
01> -7879
00> -8199
01> -7903
00> -8205
01> -7914
00> -8186
01> -7892
00> -8171
01> -7863
00> -8186
01> -7876
00> -8214
01> -7912
00> -8214
01> -7920
00> -8194
01> -7897
00> -8170
01> -7857
00> -8173
01> -7864
00> -8203
01> -7902
00> -8214
01> -7916
00> -8197
01> -7884
00> -8181
01> -7862
00> -8177
01> -7869
00> -8196
01> -7894
00> -8202
01> -7901
00> -8184
01> -7883
00> -8172
01> -7861
00> -8181
01> -7867
00> -8206
01> -7899
00> -8217
01> -7916
00> -8196
01> -7894
00> -8179
01> -7867
00> -8192
01> -7884
00> -8212
01> -7909
00> -8210
01> -7916
00> -8199
01> -7903
00> -8192
01> -7880
00> -8199
01> -7879
00> -8217
01> -7913
00> -8217
01> -7920
00> -8197
01> -7892
00> -8187
01> -7869
00> -8195
01> -7879
00> -8212
01> -7909
00> -8220
01> -7920
00> -8207
01> -7896
00> -8197
01> -7877
00> -8197
01> -7875
00> -8207
01> -7892
00> -8217
01> -7911
00> -8213
01> -7901
00> -8203
01> -7885
00> -8207
01> -7890
00> -8226
01> -7914
00> -8229
01> -7922
00> -8216
01> -7902
00> -8196
01> -7880
00> -8197
01> -7884
00> -8224
01> -7909
00> -8233
01> -7927
00> -8215
01> -7906
00> -8189
01> -7874
00> -8193
01> -7877
00> -8214
01> -7906
00> -8219
01> -7917
00> -8209
01> -7896
00> -8190
01> -7871
00> -8196
01> -7874
00> -8217
01> -7904
00> -8223
01> -7919
00> -8202
01> -7899
00> -8193
01> -7875
00> -8202
01> -7878
00> -8228
01> -7909
00> -8237
01> -7927
00> -8222
01> -7911
00> -8201
01> -7886

01> -7887
00> -8214
01> -7916
00> -8223
01> -7929
00> -8215
01> -7905
00> -8196
01> -7879
00> -8202
01> -7889
00> -8227
01> -7917
00> -8235
01> -7922
00> -8212
01> -7892
00> -8194
01> -7866
00> -8197
01> -7872
00> -8209
01> -7898
00> -8221
01> -7918
00> -8207
01> -7899
00> -8189
01> -7872
00> -8199
01> -7878
00> -8226
01> -7912
00> -8227
01> -7922
00> -8214
01> -7902
00> -8197
01> -7879
00> -8195
01> -7884
00> -8226
01> -7928
00> -8244
01> -7946
00> -8231
01> -7924
00> -8210
01> -7892
00> -8212
01> -7889
00> -8225
01> -7916
00> -8230
01> -7929
00> -8209
01> -7899
00> -8202
01> -7880
00> -8214
01> -7888
00> -8232
01> -7927
00> -8245
01> -7946
00> -8235
01> -7926
00> -8217
01> -7902
00> -8213
01> -7899
00> -8231
01> -7923
00> -8249
01> -7943
00> -8242
01> -7937
00> -8234
01> -7917
00> -8231
01> -7911
00> -8239
01> -7931
00> -8249
01> -7942
00> -8235
01> -7926
00> -8216
01> -7907
00> -8217
01> -7911
00> -8235
01> -7935
00> -8238
01> -7946
00> -8234
01> -7931
00> -8218
01> -7917
00> -8217
01> -7921
00> -8241
01> -7956
00> -8261
01> -7968
00> -8239
01> -7949
00> -8207
01> -7911
00> -8202
01> -7899
00> -8214
01> -7912
00> -8224
01> -7931
00> -8232
01> -7928
00> -8224
01> -7917
00> -8226
01> -7919
00> -8242
01> -7944
00> -8244
01> -7955
00> -8218
01> -7928
00> -8209
01> -7902
00> -8218
01> -7906
00> -8241
01> -7934
00> -8251
01> -7943
00> -8237
01> -7931
00> -8226
01> -7909
00> -8230
01> -7907
00> -8236
01> -7926
00> -8236
01> -7924
00> -8217
01> -7900
00> -8206
01> -7890
00> -8207
01> -7894
00> -8236
01> -7921
00> -8250
01> -7937
00> -8232
01> -7922
00> -8202
01> -7885
00> -8195
01> -7871
00> -8221
01> -7906
00> -8242
01> -7941
00> -8233
01> -7929
00> -8214
01> -7907
00> -8203
01> -7901
00> -8210
01> -7906
00> -8230
01> -7918
00> -8230
01> -7916
00> -8215
01> -7894
00> -8211
01> -7885
00> -8227
01> -7914
00> -8242
01> -7929
00> -8229
01> -7905
00> -8202
01> -7868
00> -8199
01> -7879
00> -8226
01> -7920
00> -8242
01> -7936
00> -8225
01> -7916
00> -8202
01> -7884
00> -8198
01> -7874
00> -8225
01> -7912
00> -8244
01> -7946
00> -8242
01> -7932
00> -8223
01> -7902
00> -8209
01> -7900
00> -8218
01> -7924
00> -8237
01> -7944
00> -8230
01> -7925
00> -8209
01> -7901
00> -8210
01> -7897
00> -8222
01> -7913
00> -8232
01> -7926
00> -8221
01> -7907
00> -8202
01> -7879
00> -8199
01> -7880
00> -8214
01> -7901
00> -8224
01> -7921
00> -8214
01> -7909
00> -8200
01> -7879
00> -8197
01> -7869
00> -8209
01> -7888
00> -8217
01> -7913
00> -8212
01> -7902
00> -8191
01> -7877
00> -8189
01> -7869
00> -8196
01> -7887
00> -8212
01> -7912
00> -8211
01> -7911
00> -8189
01> -7882
00> -8195
01> -7879
00> -8218
01> -7906
00> -8224
01> -7928
00> -8213
01> -7912
00> -8195
01> -7879
00> -8191
01> -7873
00> -8208
01> -7904
00> -8217
01> -7923
00> -8204
01> -7915
00> -8186
01> -7886
00> -8176
01> -7885
00> -8189
01> -7914
00> -8209
01> -7931
00> -8208
01> -7914
00> -8187
01> -7881
00> -8181
01> -7871
00> -8194
01> -7892
00> -8200
01> -7907
00> -8184
01> -7894
00> -8176
01> -7877
00> -8180
01> -7875
00> -8194
01> -7897
00> -8199
01> -7912
00> -8188
01> -7906
00> -8171
01> -7883
00> -8162
01> -7874
00> -8172
01> -7884
00> -8189
01> -7904
00> -8190
01> -7906
00> -8177
01> -7883
00> -8173
01> -7877
00> -8186
01> -7904
00> -8190
01> -7919
00> -8181
01> -7904
00> -8169
01> -7882
00> -8177
01> -7887
00> -8189
01> -7906
00> -8201
01> -7922
00> -8197
01> -7919
00> -8176
01> -7892
00> -8175
01> -7888
00> -8189
01> -7911
00> -8197
01> -7929
00> -8191
01> -7912
00> -8177
01> -7883
00> -8187
01> -7883
00> -8202
01> -7909
00> -8216
01> -7934
00> -8206
01> -7922
00> -8181
01> -7891
00> -8166
01> -7881
00> -8172
01> -7899
00> -8191
01> -7917
00> -8204
01> -7919
00> -8187
01> -7889
00> -8177
01> -7876
00> -8191
01> -7904
00> -8195
01> -7922
00> -8174
01> -7907
00> -8162
01> -7888
00> -8170
01> -7888
00> -8193
01> -7919
00> -8208
01> -7946
00> -8209
01> -7939
00> -8189
01> -7912
00> -8181
01> -7894
00> -8182
01> -7905
00> -8200
01> -7929
00> -8204
01> -7930
00> -8197
01> -7907
00> -8189
01> -7903
00> -8202
01> -7928
00> -8220
01> -7952
00> -8221
01> -7939
00> -8197
01> -7917
00> -8184
01> -7899
00> -8191
01> -7905
00> -8204
01> -7930
00> -8206
01> -7932
00> -8200
01> -7909
00> -8203
01> -7906
00> -8211
01> -7933
00> -8216
01> -7948
00> -8199
01> -7932
00> -8184
01> -7904
00> -8187
01> -7899
00> -8202
01> -7917
00> -8216
01> -7934
00> -8217
01> -7934
00> -8201
01> -7911
00> -8196
01> -7901
00> -8209
01> -7922
00> -8216
01> -7933
00> -8202
01> -7916
00> -8184
01> -7893
00> -8184
01> -7889
00> -8198
01> -7909
00> -8212
01> -7937
00> -8214
01> -7939
00> -8191
01> -7916
00> -8187
01> -7909
00> -8200
01> -7933
00> -8214
01> -7957
00> -8217
01> -7954
00> -8195
01> -7927
00> -8194
01> -7926
00> -8209
01> -7944
00> -8217
01> -7961
00> -8211
01> -7946
00> -8189
01> -7912
00> -8183
01> -7900
00> -8203
01> -7919
00> -8219
01> -7942
00> -8208
01> -7931
00> -8180
01> -7905
00> -8177
01> -7899
00> -8196
01> -7916
00> -8206
01> -7939
00> -8203
01> -7942
00> -8191
01> -7916
00> -8179
01> -7904
00> -8182
01> -7916
00> -8188
01> -7932
00> -8182
01> -7924
00> -8171
01> -7898
00> -8163
01> -7877
00> -8177
01> -7895
00> -8191
01> -7924
00> -8194
01> -7932
00> -8173
01> -7907
00> -8163
01> -7892
00> -8179
01> -7919
00> -8205
01> -7947
00> -8199
01> -7942
00> -8184
01> -7919
00> -8176
01> -7906
00> -8181
01> -7923
00> -8191
01> -7944
00> -8199
01> -7952
00> -8185
01> -7942
00> -8180
01> -7925
00> -8191
01> -7936
00> -8197
01> -7955
00> -8195
01> -7949
00> -8179
01> -7917
00> -8164
01> -7901
00> -8179
01> -7922
00> -8189
01> -7945
00> -8184
01> -7946
00> -8166
01> -7924
00> -8160
01> -7910
00> -8181
01> -7927
00> -8191
01> -7958
00> -8188
01> -7957
00> -8173
01> -7930
00> -8171
01> -7919
00> -8191
01> -7944
00> -8206
01> -7966
00> -8196
01> -7956
00> -8177
01> -7926
00> -8159
01> -7907
00> -8179
01> -7936
00> -8203
01> -7964
00> -8200
01> -7966
00> -8184
01> -7945
00> -8177
01> -7933
00> -8186
01> -7944
00> -8194
01> -7959
00> -8191
01> -7958
00> -8181
01> -7936
00> -8174
01> -7924
00> -8185
01> -7946
00> -8202
01> -7969
00> -8204
01> -7965
00> -8189
01> -7943
00> -8171
01> -7924
00> -8176
01> -7937
00> -8199
01> -7966
00> -8209
01> -7968
00> -8192
01> -7941
00> -8180
01> -7926
00> -8182
01> -7933
00> -8195
01> -7953
00> -8201
01> -7954
00> -8186
01> -7933
00> -8183
01> -7922
00> -8199
01> -7941
00> -8219
01> -7971
00> -8218
01> -7969
00> -8187
01> -7936
00> -8176
01> -7921
00> -8193
01> -7932
00> -8203
01> -7951
00> -8202
01> -7960
00> -8187
01> -7944
00> -8183
01> -7927
00> -8192
01> -7942
00> -8208
01> -7968
00> -8208
01> -7959
00> -8189
01> -7927
00> -8172
01> -7902
00> -8185
01> -7919
00> -8214
01> -7952
00> -8221
01> -7961
00> -8198
01> -7936
00> -8179
01> -7917
00> -8190
01> -7932
00> -8206
01> -7959
00> -8196
01> -7946
00> -8174
01> -7906
00> -8172
01> -7888
00> -8185
01> -7904
00> -8199
01> -7932
00> -8197
01> -7936
00> -8184
01> -7909
00> -8176
01> -7891
00> -8178
01> -7909
00> -8197
01> -7937
00> -8212
01> -7945
00> -8197
01> -7912
00> -8181
01> -7890
00> -8187
01> -7906
00> -8206
01> -7934
00> -8216
01> -7939
00> -8199
01> -7909
00> -8183
01> -7893
00> -8195
01> -7916
00> -8220
01> -7955
00> -8223
01> -7959
00> -8198
01> -7934
00> -8183
01> -7914
00> -8189
01> -7931
00> -8214
01> -7963
00> -8216
01> -7964
00> -8201
01> -7946
00> -8191
01> -7933
00> -8192
01> -7937
00> -8207
01> -7958
00> -8213
01> -7971
00> -8201
01> -7947
00> -8199
01> -7926
00> -8205
01> -7949
00> -8215
01> -7980
00> -8209
01> -7974
00> -8196
01> -7952
00> -8186
01> -7946
00> -8192
01> -7958
00> -8214
01> -7989
00> -8217
01> -7981
00> -8196
01> -7947
00> -8177
01> -7922
00> -8182
01> -7932
00> -8201
01> -7966
00> -8207
01> -7969
00> -8191
01> -7947
00> -8186
01> -7943
00> -8199
01> -7964
00> -8224
01> -7994
00> -8221
01> -7987
00> -8197
01> -7957
00> -8194
01> -7940
00> -8210
01> -7956
00> -8228
01> -7985
00> -8226
01> -7993
00> -8215
01> -7967
00> -8208
01> -7951
00> -8219
01> -7974
00> -8236
01> -8008
00> -8230
01> -7998
00> -8210
01> -7958
00> -8194
01> -7936
00> -8208
01> -7953
00> -8238
01> -7997
00> -8237
01> -8002
00> -8216
01> -7969
00> -8203
01> -7946
00> -8200
01> -7948
00> -8209
01> -7972
00> -8219
01> -7989
00> -8206
01> -7975
00> -8191
01> -7957
00> -8204
01> -7973
00> -8211
01> -7986
00> -8212
01> -7987
00> -8211
01> -7976
00> -8201
01> -7956
00> -8207
01> -7959
00> -8227
01> -7980
00> -8231
01> -7985
00> -8212
01> -7977
00> -8202
01> -7959
00> -8208
01> -7962
00> -8226
01> -7993
00> -8235
01> -8004
00> -8218
01> -7976
00> -8204
01> -7956
00> -8206
01> -7966
00> -8224
01> -7986
00> -8226
01> -7992
00> -8222
01> -7977
00> -8215
01> -7956
00> -8227
01> -7968
00> -8238
01> -7987
00> -8236
01> -7983
00> -8228
01> -7959
00> -8210
01> -7939
00> -8220
01> -7952
00> -8240
01> -7986
00> -8245
01> -7997
00> -8233
01> -7981
00> -8216
01> -7952
00> -8215
01> -7956
00> -8235
01> -7986
00> -8252
01> -8013
00> -8243
01> -8001
00> -8231
01> -7977
00> -8234
01> -7976
00> -8244
01> -7994
00> -8246
01> -7995
00> -8225
01> -7971
00> -8216
01> -7957
00> -8222
01> -7963
00> -8239
01> -7986
00> -8239
01> -7989
00> -8224
01> -7964
00> -8207
01> -7946
00> -8216
01> -7966
00> -8237
01> -7996
00> -8242
01> -7997
00> -8217
01> -7964
00> -8194
01> -7936
00> -8206
01> -7958
00> -8232
01> -7996
00> -8242
01> -8001
00> -8229
01> -7984
00> -8206
01> -7963
00> -8201
01> -7961
00> -8222
01> -7987
00> -8233
01> -7994
00> -8211
01> -7967
00> -8193
01> -7942
00> -8201
01> -7955
00> -8230
01> -7989
00> -8231
01> -7997
00> -8204
01> -7971
00> -8198
01> -7951
00> -8207
01> -7962
00> -8221
01> -7991
00> -8233
01> -8007
00> -8223
01> -7984
00> -8201
01> -7953
00> -8201
01> -7964
00> -8229
01> -7996
00> -8242
01> -8001
00> -8225
01> -7974
00> -8204
01> -7954
00> -8210
01> -7967
00> -8223
01> -7991
00> -8222
01> -8000
00> -8200
01> -7974
00> -8175
01> -7941
00> -8178
01> -7941
00> -8208
01> -7975
00> -8212
01> -7993
00> -8198
01> -7969
00> -8186
01> -7951
00> -8192
01> -7965
00> -8218
01> -7994
00> -8224
01> -8007
00> -8209
01> -7987
00> -8194
01> -7958
00> -8197
01> -7955
00> -8209
01> -7976
00> -8212
01> -7988
00> -8199
01> -7971
00> -8182
01> -7944
00> -8186
01> -7952
00> -8209
01> -7993
00> -8224
01> -8012
00> -8218
01> -7991
00> -8203
01> -7977
00> -8206
01> -7990
00> -8222
01> -8015
00> -8228
01> -8017
00> -8224
01> -7998
00> -8212
01> -7968
00> -8211
01> -7968
00> -8225
01> -7991
00> -8234
01> -8006
00> -8219
01> -7987
00> -8201
01> -7968
00> -8212
01> -7976
00> -8229
01> -8003
00> -8237
01> -8013
00> -8221
01> -7991
00> -8197
01> -7966
00> -8198
01> -7971
00> -8226
01> -8003
00> -8234
01> -8010
00> -8223
01> -7994
00> -8217
01> -7983
00> -8225
01> -7999
00> -8232
01> -8019
00> -8224
01> -8013
00> -8222
01> -7998
00> -8216
01> -7986
00> -8222
01> -7999
00> -8241
01> -8023
00> -8242
01> -8031
00> -8224
01> -8001
00> -8202
01> -7976
00> -8211
01> -7984
00> -8238
01> -8017
00> -8247
01> -8033
00> -8232
01> -8009
00> -8211
01> -7974
00> -8225
01> -7984
00> -8244
01> -8013
00> -8245
01> -8026
00> -8237
01> -8010
00> -8224
01> -7982
00> -8226
01> -7985
00> -8245
01> -8012
00> -8254
01> -8031
00> -8228
01> -7999
00> -8199
01> -7960
00> -8213
01> -7965
00> -8234
01> -7997
00> -8252
01> -8016
00> -8245
01> -8011
00> -8229
01> -7981
00> -8229
01> -7973
00> -8237
01> -7994
00> -8234
01> -8001
00> -8221
01> -7976
00> -8212
01> -7958
00> -8225
01> -7969
00> -8242
01> -7997
00> -8235
01> -8001
00> -8216
01> -7977
00> -8208
01> -7964
00> -8223
01> -7974
00> -8227
01> -7987
00> -8232
01> -7989
00> -8238
01> -7973
00> -8222
01> -7945
00> -8214
01> -7939
00> -8227
01> -7969
00> -8256
01> -8002
00> -8244
01> -7995
00> -8219
01> -7966
00> -8222
01> -7964
00> -8239
01> -7986
00> -8244
01> -7996
00> -8226
01> -7969
00> -8197
01> -7935
00> -8198
01> -7939
00> -8217
01> -7971
00> -8234
01> -7995
00> -8230
01> -7989
00> -8204
01> -7957
00> -8196
01> -7957
00> -8219
01> -7995
00> -8242
01> -8015
00> -8232
01> -7994
00> -8217
01> -7969
00> -8228
01> -7976
00> -8237
01> -8001
00> -8236
01> -8011
00> -8230
01> -8000
00> -8233
01> -7982
00> -8231
01> -7975
00> -8244
01> -8000
00> -8247
01> -8017
00> -8222
01> -7989
00> -8204
01> -7956
00> -8231
01> -7976
00> -8258
01> -8011
00> -8265
01> -8030
00> -8257
01> -8013
00> -8232
01> -7982
00> -8218
01> -7962
00> -8236
01> -7991
00> -8250
01> -8015
00> -8237
01> -7997
00> -8224
01> -7971
00> -8233
01> -7979
00> -8251
01> -8017
00> -8266
01> -8035
00> -8259
01> -8019
00> -8229
01> -7987
00> -8227
01> -7987
00> -8257
01> -8018
00> -8273
01> -8035
00> -8248
01> -8015
00> -8226
01> -7988
00> -8231
01> -7992
00> -8251
01> -8022
00> -8256
01> -8040
00> -8237
01> -8019
00> -8214
01> -7980
00> -8216
01> -7969
00> -8251
01> -8004
00> -8263
01> -8028
00> -8261
01> -8029
00> -8247
01> -8011
00> -8243
01> -8005
00> -8257
01> -8024
00> -8279
01> -8048
00> -8265
01> -8025
00> -8239
01> -7987
00> -8235
01> -7981
00> -8256
01> -8012
00> -8281
01> -8042
00> -8276
01> -8037
00> -8256
01> -8010
00> -8249
01> -7997
00> -8261
01> -8012
00> -8268
01> -8024
00> -8254
01> -8006
00> -8247
01> -7983
00> -8249
01> -7986
00> -8261
01> -8012
00> -8269
01> -8034
00> -8259
01> -8016
00> -8231
01> -7979
00> -8219
01> -7976
00> -8252
01> -8014
00> -8267
01> -8031
00> -8255
01> -8008
00> -8244
01> -7990
00> -8251
01> -8002
00> -8266
01> -8028
00> -8271
01> -8030
00> -8241
01> -7991
00> -8208
01> -7948
00> -8216
01> -7961
00> -8251
01> -8001
00> -8267
01> -8030
00> -8263
01> -8022
00> -8247
01> -7998
00> -8234
01> -7979
00> -8242
01> -7995
00> -8255
01> -8020
00> -8262
01> -8019
00> -8253
01> -8006
00> -8246
01> -8001
00> -8259
01> -8021
00> -8277
01> -8038
00> -8269
01> -8021
00> -8249
01> -7987
00> -8247
01> -7977
00> -8250
01> -8001
00> -8266
01> -8021
00> -8259
01> -8013
00> -8241
01> -7982
00> -8237
01> -7967
00> -8252
01> -7986
00> -8262
01> -8001
00> -8252
01> -7993
00> -8233
01> -7973
00> -8235
01> -7976
00> -8258
01> -8012
00> -8265
01> -8029
00> -8242
01> -8011
00> -8232
01> -7977
00> -8224
01> -7964
00> -8232
01> -7980
00> -8242
01> -8001
00> -8236
01> -7996
00> -8227
01> -7975
00> -8226
01> -7967
00> -8237
01> -7987
00> -8254
01> -8017
00> -8257
01> -8015
00> -8245
01> -7996
00> -8241
01> -7987
00> -8251
01> -8000
00> -8255
01> -8009
00> -8244
01> -7999
00> -8224
01> -7975
00> -8216
01> -7966
00> -8234
01> -7993
00> -8242
01> -8014
00> -8230
01> -7997
00> -8211
01> -7962
00> -8210
01> -7954
00> -8241
01> -7991
00> -8261
01> -8017
00> -8258
01> -8014
00> -8237
01> -7987
00> -8232
01> -7985
00> -8239
01> -7996
00> -8244
01> -8004
00> -8240
01> -7992
00> -8224
01> -7966
00> -8217
01> -7959
00> -8228
01> -7972
00> -8236
01> -8000
00> -8225
01> -7989
00> -8211
01> -7964
00> -8217
01> -7972
00> -8231
01> -8001
00> -8244
01> -8024
00> -8246
01> -8004
00> -8230
01> -7971
00> -8227
01> -7974
00> -8239
01> -8000
00> -8245
01> -8017
00> -8241
01> -8009
00> -8229
01> -7982
00> -8219
01> -7980
00> -8236
01> -8004
00> -8254
01> -8017
00> -8247
01> -8008
00> -8222
01> -7979
00> -8224
01> -7969
00> -8242
01> -7991
00> -8261
01> -8014
00> -8265
01> -8009
00> -8248
01> -7990
00> -8236
01> -7988
00> -8242
01> -8001
00> -8257
01> -8016
00> -8251
01> -8004
00> -8238
01> -7981
00> -8233
01> -7977
00> -8240
01> -8006
00> -8257
01> -8031
00> -8254
01> -8027
00> -8242
01> -8003
00> -8236
01> -7988
00> -8244
01> -8004
00> -8244
01> -8016
00> -8238
01> -8013
00> -8225
01> -7989
00> -8212
01> -7974
00> -8222
01> -7997
00> -8240
01> -8024
00> -8235
01> -8012
00> -8217
01> -7988
00> -8214
01> -7990
00> -8226
01> -8011
00> -8234
01> -8030
00> -8226
01> -8015
00> -8204
01> -7981
00> -8210
01> -7990
00> -8237
01> -8026
00> -8252
01> -8051
00> -8249
01> -8032
00> -8229
01> -7997
00> -8217
01> -7977
00> -8227
01> -7992
00> -8259
01> -8023
00> -8261
01> -8026
00> -8241
01> -8004
00> -8229
01> -7994
00> -8242
01> -8011
00> -8261
01> -8026
00> -8245
01> -8013
00> -8224
01> -7982
00> -8227
01> -7982
00> -8247
01> -8009
00> -8259
01> -8027
00> -8247
01> -8014
00> -8222
01> -7990
00> -8218
01> -7991
00> -8225
01> -8004
00> -8231
01> -8015
00> -8218
01> -8004
00> -8216
01> -7989
00> -8221
01> -7982
00> -8242
01> -8014
00> -8261
01> -8050
00> -8254
01> -8042
00> -8230
01> -8001
00> -8221
01> -7981
00> -8235
01> -7997
00> -8247
01> -8013
00> -8247
01> -8002
00> -8229
01> -7983
00> -8216
01> -7978
00> -8234
01> -7998
00> -8261
01> -8030
00> -8252
01> -8024
00> -8219
01> -7992
00> -8202
01> -7976
00> -8224
01> -7996
00> -8247
01> -8021
00> -8249
01> -8022
00> -8226
01> -7991
00> -8214
01> -7976
00> -8234
01> -7998
00> -8252
01> -8024
00> -8248
01> -8023
00> -8233
01> -8014
00> -8231
01> -8004
00> -8241
01> -8015
00> -8254
01> -8031
00> -8251
01> -8016
00> -8234
01> -7992
00> -8223
01> -7977
00> -8230
01> -7997
00> -8251
01> -8027
00> -8247
01> -8037
00> -8230
01> -8014
00> -8211
01> -7984
00> -8222
01> -7992
00> -8238
01> -8014
00> -8234
01> -8015
00> -8221
01> -7984
00> -8222
01> -7980
00> -8237
01> -8001
00> -8253
01> -8017
00> -8255
01> -8024
00> -8241
01> -8003
00> -8233
01> -7989
00> -8236
01> -7998
00> -8247
01> -8018
00> -8237
01> -8010
00> -8220
01> -7977
00> -8217
01> -7958
00> -8231
01> -7982
00> -8256
01> -8021
00> -8266
01> -8028
00> -8249
01> -8000
00> -8237
01> -7982
00> -8239
01> -7997
00> -8249
01> -8020
00> -8260
01> -8026
00> -8251
01> -7999
00> -8240
01> -7986
00> -8247
01> -8006
00> -8264
01> -8034
00> -8255
01> -8021
00> -8234
01> -7991
00> -8217
01> -7975
00> -8216
01> -7988
00> -8242
01> -8017
00> -8255
01> -8021
00> -8240
01> -7998
00> -8214
01> -7974
00> -8224
01> -7987
00> -8243
01> -8012
00> -8243
01> -8011
00> -8222
01> -7983
00> -8213
01> -7976
00> -8227
01> -7997
00> -8254
01> -8034
00> -8256
01> -8039
00> -8228
01> -8003
00> -8210
01> -7979
00> -8232
01> -7994
00> -8258
01> -8032
00> -8259
01> -8045
00> -8236
01> -8007
00> -8213
01> -7971
00> -8209
01> -7973
00> -8234
01> -8009
00> -8254
01> -8023
00> -8233
01> -7999
00> -8224
01> -7986
00> -8233
01> -7996
00> -8232
01> -7994
00> -8224
01> -7987
00> -8208
01> -7976
00> -8213
01> -7981
00> -8212
01> -7998
00> -8239
01> -8029
00> -8251
01> -8044
00> -8230
01> -8014
00> -8214
01> -7992
00> -8236
01> -8017
00> -8249
01> -8047
00> -8234
01> -8044
00> -8232
01> -8027
00> -8235
01> -8009
00> -8244
01> -8015
00> -8261
01> -8034
00> -8262
01> -8040
00> -8252
01> -8022
00> -8247
01> -8019
00> -8251
01> -8035
00> -8264
01> -8059
00> -8274
01> -8061
00> -8252
01> -8027
00> -8232
01> -8006
00> -8239
01> -8017
00> -8262
01> -8049
00> -8264
01> -8056
00> -8241
01> -8037
00> -8234
01> -8027
00> -8240
01> -8034
00> -8251
01> -8051
00> -8259
01> -8054
00> -8251
01> -8026
00> -8246
01> -8006
00> -8259
01> -8028
00> -8276
01> -8058
00> -8266
01> -8050
00> -8253
01> -8029
00> -8249
01> -8019
00> -8254
01> -8032
00> -8271
01> -8056
00> -8269
01> -8057
00> -8246
01> -8034
00> -8234
01> -8009
00> -8239
01> -8018
00> -8261
01> -8047
00> -8263
01> -8053
00> -8246
01> -8032
00> -8232
01> -8021
00> -8246
01> -8046
00> -8268
01> -8076
00> -8277
01> -8081
00> -8250
01> -8048
00> -8228
01> -8018
00> -8242
01> -8031
00> -8262
01> -8063
00> -8268
01> -8070
00> -8256
01> -8039
00> -8233
01> -8006
00> -8242
01> -8037
00> -8269
01> -8067
00> -8271
01> -8069
00> -8252
01> -8044
00> -8234
01> -8023
00> -8232
01> -8027
00> -8247
01> -8051
00> -8261
01> -8064
00> -8246
01> -8045
00> -8233
01> -8028
00> -8241
01> -8050
00> -8261
01> -8083
00> -8266
01> -8092
00> -8259
01> -8066
00> -8245
01> -8032
00> -8243
01> -8031
00> -8250
01> -8057
00> -8249
01> -8066
00> -8224
01> -8037
00> -8226
01> -8024
00> -8247
01> -8049
00> -8266
01> -8079
00> -8274
01> -8088
00> -8258
01> -8061
00> -8232
01> -8021
00> -8236
01> -8022
00> -8252
01> -8054
00> -8256
01> -8057
00> -8237
01> -8031
00> -8229
01> -8017
00> -8239
01> -8024
00> -8251
01> -8050
00> -8247
01> -8056
00> -8242
01> -8044
00> -8225
01> -8020
00> -8231
01> -8027
00> -8259
01> -8059
00> -8267
01> -8062
00> -8251
01> -8034
00> -8227
01> -8011
00> -8241
01> -8035
00> -8260
01> -8061
00> -8256
01> -8062
00> -8241
01> -8039
00> -8232
01> -8023
00> -8236
01> -8030
00> -8244
01> -8049
00> -8253
01> -8056
00> -8237
01> -8031
00> -8220
01> -8010
00> -8234
01> -8024
00> -8261
01> -8061
00> -8274
01> -8072
00> -8260
01> -8047
00> -8243
01> -8023
00> -8252
01> -8027
00> -8273
01> -8052
00> -8279
01> -8063
00> -8263
01> -8041
00> -8249
01> -8016
00> -8259
01> -8031
00> -8277
01> -8063
00> -8277
01> -8063
00> -8255
01> -8026
00> -8234
01> -8002
00> -8242
01> -8024
00> -8265
01> -8059
00> -8281
01> -8077
00> -8267
01> -8053
00> -8252
01> -8034
00> -8267
01> -8044
00> -8284
01> -8066
00> -8291
01> -8075
00> -8273
01> -8049
00> -8260
01> -8027
00> -8259
01> -8029
00> -8270
01> -8055
00> -8264
01> -8063
00> -8237
01> -8035
00> -8219
01> -8002
00> -8230
01> -8010
00> -8247
01> -8041
00> -8262
01> -8058
00> -8252
01> -8036
00> -8230
01> -8007
00> -8235
01> -8017
00> -8254
01> -8046
00> -8251
01> -8058
00> -8231
01> -8034
00> -8229
01> -8023
00> -8242
01> -8037
00> -8259
01> -8067
00> -8269
01> -8071
00> -8247
01> -8037
00> -8221
01> -8006
00> -8231
01> -8014
00> -8251
01> -8049
00> -8268
01> -8071
00> -8254
01> -8055
00> -8236
01> -8026
00> -8240
01> -8027
00> -8258
01> -8051
00> -8257
01> -8064
00> -8236
01> -8041
00> -8217
01> -8012
00> -8231
01> -8026
00> -8251
01> -8049
00> -8242
01> -8044
00> -8221
01> -8023
00> -8211
01> -7997
00> -8223
01> -8004
00> -8235
01> -8032
00> -8241
01> -8051
00> -8229
01> -8038
00> -8219
01> -8015
00> -8224
01> -8029
00> -8245
01> -8066
00> -8252
01> -8079
00> -8234
01> -8056
00> -8217
01> -8027
00> -8221
01> -8036
00> -8237
01> -8066
00> -8242
01> -8073
00> -8232
01> -8051
00> -8227
01> -8037
00> -8238
01> -8045
00> -8257
01> -8066
00> -8259
01> -8079
00> -8244
01> -8062
00> -8229
01> -8043
00> -8231
01> -8047
00> -8250
01> -8071
00> -8257
01> -8075
00> -8244
01> -8050
00> -8222
01> -8022
00> -8227
01> -8029
00> -8247
01> -8066
00> -8261
01> -8089
00> -8254
01> -8077
00> -8232
01> -8044
00> -8229
01> -8035
00> -8246
01> -8059
00> -8257
01> -8072
00> -8249
01> -8054
00> -8236
01> -8032
00> -8240
01> -8045
00> -8248
01> -8070
00> -8254
01> -8081
00> -8245
01> -8062
00> -8236
01> -8039
00> -8238
01> -8046
00> -8257
01> -8074
00> -8271
01> -8088
00> -8261
01> -8069
00> -8244
01> -8036
00> -8229
01> -8026
00> -8247
01> -8051
00> -8274
01> -8074
00> -8264
01> -8061
00> -8246
01> -8042
00> -8253
01> -8049
00> -8279
01> -8079
00> -8278
01> -8092
00> -8259
01> -8072
00> -8242
01> -8042
00> -8242
01> -8051
00> -8265
01> -8081
00> -8267
01> -8086
00> -8264
01> -8076
00> -8252
01> -8051
00> -8251
01> -8048
00> -8279
01> -8082
00> -8292
01> -8099
00> -8269
01> -8079
00> -8242
01> -8043
00> -8240
01> -8030
00> -8259
01> -8056
00> -8270
01> -8081
00> -8261
01> -8065
00> -8250
01> -8038
00> -8251
01> -8041
00> -8266
01> -8072
00> -8279
01> -8096
00> -8269
01> -8077
00> -8248
01> -8051
00> -8256
01> -8051
00> -8272
01> -8068
00> -8276
01> -8082
00> -8261
01> -8067
00> -8249
01> -8041
00> -8254
01> -8046
00> -8272
01> -8069
00> -8279
01> -8081
00> -8266
01> -8066
00> -8241
01> -8041
00> -8239
01> -8036
00> -8268
01> -8066
00> -8272
01> -8077
00> -8255
01> -8056
00> -8241
01> -8024
00> -8238
01> -8031
00> -8254
01> -8058
00> -8262
01> -8074
00> -8259
01> -8066
00> -8242
01> -8041
00> -8241
01> -8042
00> -8258
01> -8072
00> -8263
01> -8089
00> -8244
01> -8071
00> -8219
01> -8046
00> -8218
01> -8039
00> -8241
01> -8064
00> -8261
01> -8091
00> -8258
01> -8082
00> -8230
01> -8051
00> -8222
01> -8037
00> -8232
01> -8056
00> -8245
01> -8079
00> -8242
01> -8076
00> -8234
01> -8054
00> -8239
01> -8056
00> -8256
01> -8073
00> -8264
01> -8098
00> -8254
01> -8086
00> -8234
01> -8054
00> -8232
01> -8045
00> -8246
01> -8064
00> -8264
01> -8090
00> -8264
01> -8091
00> -8247
01> -8070
00> -8246
01> -8057
00> -8258
01> -8071
00> -8261
01> -8084
00> -8250
01> -8067
00> -8231
01> -8036
00> -8235
01> -8035
00> -8259
01> -8069
00> -8272
01> -8092
00> -8262
01> -8081
00> -8250
01> -8064
00> -8249
01> -8058
00> -8259
01> -8071
00> -8264
01> -8086
00> -8242
01> -8064
00> -8231
01> -8041
00> -8239
01> -8042
00> -8256
01> -8068
00> -8267
01> -8086
00> -8256
01> -8077
00> -8233
01> -8049
00> -8228
01> -8041
00> -8235
01> -8057
00> -8248
01> -8072
00> -8250
01> -8074
00> -8230
01> -8046
00> -8224
01> -8035
00> -8243
01> -8060
00> -8258
01> -8081
00> -8244
01> -8057
00> -8219
01> -8027
00> -8213
01> -8016
00> -8233
01> -8047
00> -8262
01> -8075
00> -8257
01> -8066
00> -8231
01> -8038
00> -8227
01> -8027
00> -8251
01> -8059
00> -8261
01> -8077
00> -8252
01> -8062
00> -8241
01> -8042
00> -8236
01> -8029
00> -8246
01> -8048
00> -8257
01> -8068
00> -8253
01> -8059
00> -8234
01> -8030
00> -8228
01> -8019
00> -8234
01> -8037
00> -8247
01> -8059
00> -8245
01> -8047
00> -8228
01> -8019
00> -8227
01> -8018
00> -8244
01> -8056
00> -8254
01> -8067
00> -8254
01> -8057
00> -8228
01> -8024
00> -8221
01> -8014
00> -8232
01> -8031
00> -8247
01> -8053
00> -8251
01> -8056
00> -8233
01> -8033
00> -8226
01> -8028
00> -8242
01> -8048
00> -8247
01> -8058
00> -8231
01> -8034
00> -8212
01> -8007
00> -8208
01> -8005
00> -8232
01> -8036
00> -8246
01> -8057
00> -8233
01> -8044
00> -8229
01> -8026
00> -8232
01> -8017
00> -8242
01> -8034
00> -8262
01> -8066
00> -8256
01> -8057
00> -8237
01> -8027
00> -8224
01> -8014
00> -8236
01> -8039
00> -8252
01> -8061
00> -8252
01> -8052
00> -8238
01> -8028
00> -8225
01> -8021
00> -8238
01> -8045
00> -8256
01> -8065
00> -8242
01> -8051
00> -8222
01> -8025
00> -8220
01> -8027
00> -8241
01> -8054
00> -8262
01> -8082
00> -8254
01> -8073
00> -8234
01> -8039
00> -8227
01> -8023
00> -8236
01> -8039
00> -8254
01> -8070
00> -8253
01> -8069
00> -8231
01> -8033
00> -8208
01> -8014
00> -8224
01> -8038
00> -8252
01> -8069
00> -8248
01> -8059
00> -8229
01> -8029
00> -8221
01> -8018
00> -8234
01> -8037
00> -8248
01> -8058
00> -8239
01> -8054
00> -8226
01> -8036
00> -8216
01> -8017
00> -8236
01> -8035
00> -8259
01> -8069
00> -8248
01> -8059
00> -8232
01> -8030
00> -8232
01> -8021
00> -8237
01> -8037
00> -8246
01> -8053
00> -8244
01> -8041
00> -8229
01> -8016
00> -8228
01> -8009
00> -8247
01> -8039
00> -8256
01> -8059
00> -8241
01> -8041
00> -8215
01> -8002
00> -8209
01> -7984
00> -8229
01> -8009
00> -8241
01> -8040
00> -8237
01> -8037
00> -8219
01> -8012
00> -8213
01> -8006
00> -8226
01> -8026
00> -8241
01> -8046
00> -8246
01> -8044
00> -8233
01> -8028
00> -8229
01> -8022
00> -8244
01> -8034
00> -8264
01> -8058
00> -8261
01> -8056
00> -8241
01> -8040
00> -8229
01> -8027
00> -8241
01> -8043
00> -8254
01> -8070
00> -8245
01> -8060
00> -8226
01> -8027
00> -8222
01> -8016
00> -8245
01> -8047
00> -8265
01> -8086
00> -8259
01> -8070
00> -8236
01> -8032
00> -8212
01> -8006
00> -8225
01> -8029
00> -8254
01> -8067
00> -8252
01> -8081
00> -8237
01> -8054
00> -8224
01> -8031
00> -8238
01> -8051
00> -8251
01> -8072
00> -8243
01> -8060
00> -8221
01> -8029
00> -8212
01> -8013
00> -8232
01> -8038
00> -8254
01> -8072
00> -8248
01> -8064
00> -8230
01> -8037
00> -8227
01> -8020
00> -8241
01> -8037
00> -8261
01> -8073
00> -8251
01> -8064
00> -8230
01> -8031
00> -8221
01> -8020
00> -8231
01> -8035
00> -8256
01> -8063
00> -8251
01> -8062
00> -8233
01> -8038
00> -8222
01> -8025
00> -8231
01> -8039
00> -8251
01> -8064
00> -8244
01> -8065
00> -8227
01> -8042
00> -8221
01> -8029
00> -8235
01> -8047
00> -8247
01> -8071
00> -8246
01> -8072
00> -8231
01> -8055
00> -8226
01> -8045
00> -8232
01> -8057
00> -8236
01> -8066
00> -8236
01> -8057
00> -8222
01> -8030
00> -8211
01> -8012
00> -8226
01> -8031
00> -8254
01> -8074
00> -8257
01> -8081
00> -8234
01> -8041
00> -8215
01> -8015
00> -8221
01> -8032
00> -8240
01> -8062
00> -8244
01> -8067
00> -8234
01> -8046
00> -8229
01> -8026
00> -8239
01> -8035
00> -8254
01> -8056
00> -8251
01> -8061
00> -8237
01> -8039
00> -8226
01> -8017
00> -8234
01> -8033
00> -8253
01> -8065
00> -8252
01> -8063
00> -8235
01> -8030
00> -8224
01> -8009
00> -8231
01> -8026
00> -8250
01> -8053
00> -8251
01> -8057
00> -8229
01> -8036
00> -8211
01> -8015
00> -8222
01> -8021
00> -8247
01> -8051
00> -8253
01> -8060
00> -8237
01> -8028
00> -8229
01> -8012
00> -8241
01> -8029
00> -8254
01> -8049
00> -8256
01> -8047
00> -8239
01> -8020
00> -8225
01> -8003
00> -8238
01> -8022
00> -8257
01> -8047
00> -8246
01> -8040
00> -8224
01> -8012
00> -8212
01> -7991
00> -8231
01> -8010
00> -8261
01> -8049
00> -8259
01> -8052
00> -8237
01> -8022
00> -8222
01> -8001
00> -8224
01> -8021
00> -8246
01> -8051
00> -8253
01> -8052
00> -8236
01> -8024
00> -8221
01> -8006
00> -8232
01> -8026
00> -8259
01> -8058
00> -8266
01> -8058
00> -8240
01> -8027
00> -8233
01> -8017
00> -8246
01> -8035
00> -8254
01> -8057
00> -8255
01> -8059
00> -8237
01> -8026
00> -8227
01> -8003
00> -8232
01> -8017
00> -8247
01> -8047
00> -8249
01> -8054
00> -8232
01> -8024
00> -8228
01> -8004
00> -8237
01> -8022
00> -8251
01> -8056
00> -8252
01> -8055
00> -8244
01> -8036
00> -8230
01> -8014
00> -8239
01> -8017
00> -8254
01> -8031
00> -8246
01> -8031
00> -8225
01> -8019
00> -8214
01> -7997
00> -8229
01> -7986
00> -8230
01> -7976
00> -8224
01> -7979
00> -8205
01> -7952
00> -8187
01> -7926
00> -8194
01> -7935
00> -8204
01> -7946
00> -8176
01> -7915
00> -8130
01> -7854
00> -8117
01> -7825
00> -8138
01> -7837
00> -8147
01> -7844
00> -8125
01> -7817
00> -8091
01> -7763
00> -8057
01> -7712
00> -8051
01> -7697
00> -8064
01> -7715
00> -8054
01> -7703
00> -8031
01> -7657
00> -8014
01> -7619
00> -8026
01> -7636
00> -8046
01> -7663
00> -8052
01> -7670
00> -8042
01> -7652
00> -8034
01> -7650
00> -8052
01> -7687
00> -8078
01> -7722
00> -8087
01> -7729
00> -8091
01> -7720
00> -8077
01> -7700
00> -8082
01> -7722
00> -8116
01> -7771
00> -8132
01> -7787
00> -8124
01> -7766
00> -8117
01> -7753
00> -8133
01> -7777
00> -8152
01> -7816
00> -8160
01> -7831
00> -8151
01> -7815
00> -8145
01> -7805
00> -8156
01> -7829
00> -8179
01> -7862
00> -8182
01> -7870
00> -8164
01> -7852
00> -8158
01> -7841
00> -8173
01> -7860
00> -8194
01> -7894
00> -8201
01> -7903
00> -8191
01> -7892
00> -8185
01> -7886
00> -8192
01> -7901
00> -8206
01> -7919
00> -8209
01> -7925
00> -8207
01> -7917
00> -8198
01> -7904
00> -8210
01> -7928
00> -8236
01> -7974
00> -8244
01> -7996
00> -8227
01> -7971
00> -8205
01> -7930
00> -8205
01> -7930
00> -8233
01> -7964
00> -8244
01> -7979
00> -8229
01> -7956
00> -8219
01> -7940
00> -8230
01> -7963
00> -8249
01> -7997
00> -8254
01> -8005
00> -8245
01> -7987
00> -8241
01> -7981
00> -8251
01> -7991
00> -8266
01> -8014
00> -8268
01> -8023
00> -8256
01> -7999
00> -8240
01> -7978
00> -8243
01> -7991
00> -8259
01> -8024
00> -8267
01> -8034
00> -8249
01> -8005
00> -8229
01> -7982
00> -8248
01> -8007
00> -8275
01> -8042
00> -8282
01> -8053
00> -8264
01> -8029
00> -8249
01> -8012
00> -8266
01> -8023
00> -8285
01> -8049
00> -8287
01> -8050
00> -8272
01> -8028
00> -8259
01> -8007
00> -8268
01> -8023
00> -8290
01> -8059
00> -8299
01> -8077
00> -8290
01> -8067
00> -8267
01> -8039
00> -8261
01> -8027
00> -8266
01> -8047
00> -8276
01> -8061
00> -8270
01> -8044
00> -8259
01> -8027
00> -8263
01> -8034
00> -8277
01> -8061
00> -8284
01> -8071
00> -8264
01> -8047
00> -8245
01> -8020
00> -8246
01> -8027
00> -8272
01> -8066
00> -8281
01> -8081
00> -8264
01> -8054
00> -8239
01> -8012
00> -8242
01> -8017
00> -8245
01> -8046
00> -8242
01> -8056
00> -8234
01> -8034
00> -8219
01> -8000
00> -8216
01> -8000
00> -8244
01> -8042
00> -8267
01> -8069
00> -8266
01> -8056
00> -8255
01> -8037
00> -8257
01> -8046
00> -8272
01> -8067
00> -8280
01> -8076
00> -8272
01> -8056
00> -8252
01> -8022
00> -8251
01> -8026
00> -8271
01> -8064
00> -8276
01> -8061
00> -8264
01> -8034
00> -8260
01> -8019
00> -8264
01> -8025
00> -8273
01> -8051
00> -8277
01> -8068
00> -8265
01> -8046
00> -8259
01> -8020
00> -8265
01> -8025
00> -8287
01> -8052
00> -8297
01> -8064
00> -8284
01> -8041
00> -8263
01> -8019
00> -8265
01> -8021
00> -8284
01> -8055
00> -8296
01> -8069
00> -8287
01> -8052
00> -8279
01> -8046
00> -8276
01> -8050
00> -8289
01> -8066
00> -8300
01> -8077
00> -8284
01> -8057
00> -8270
01> -8037
00> -8279
01> -8042
00> -8299
01> -8066
00> -8299
01> -8091
00> -8282
01> -8067
00> -8272
01> -8037
00> -8272
01> -8042
00> -8301
01> -8074
00> -8322
01> -8099
00> -8305
01> -8077
00> -8281
01> -8046
00> -8283
01> -8044
00> -8301
01> -8064
00> -8305
01> -8079
00> -8295
01> -8071
00> -8274
01> -8041
00> -8277
01> -8042
00> -8288
01> -8069
00> -8304
01> -8086
00> -8291
01> -8066
00> -8272
01> -8037
00> -8265
01> -8026
00> -8277
01> -8051
00> -8292
01> -8075
00> -8287
01> -8071
00> -8281
01> -8051
00> -8282
01> -8051
00> -8296
01> -8078
00> -8304
01> -8089
00> -8284
01> -8061
00> -8259
01> -8027
00> -8269
01> -8033
00> -8287
01> -8062
00> -8294
01> -8076
00> -8281
01> -8069
00> -8264
01> -8044
00> -8263
01> -8036
00> -8277
01> -8069
00> -8286
01> -8082
00> -8273
01> -8058
00> -8252
01> -8023
00> -8259
01> -8031
00> -8282
01> -8067
00> -8291
01> -8082
00> -8277
01> -8071
00> -8254
01> -8040
00> -8256
01> -8037
00> -8275
01> -8059
00> -8284
01> -8070
00> -8262
01> -8051
00> -8242
01> -8024
00> -8256
01> -8035
00> -8277
01> -8068
00> -8291
01> -8091
00> -8282
01> -8082
00> -8257
01> -8052
00> -8257
01> -8047
00> -8277
01> -8072
00> -8286
01> -8085
00> -8289
01> -8080
00> -8276
01> -8055
00> -8282
01> -8059
00> -8304
01> -8077
00> -8303
01> -8073
00> -8283
01> -8057
00> -8279
01> -8034
00> -8281
01> -8044
00> -8301
01> -8092
00> -8318
01> -8108
00> -8302
01> -8086
00> -8276
01> -8050
00> -8271
01> -8043
00> -8297
01> -8071
00> -8303
01> -8078
00> -8284
01> -8061
00> -8272
01> -8041
00> -8274
01> -8030
00> -8284
01> -8052
00> -8292
01> -8076
00> -8299
01> -8078
00> -8285
01> -8052
00> -8274
01> -8047
00> -8285
01> -8067
00> -8301
01> -8085
00> -8301
01> -8091
00> -8277
01> -8066
00> -8267
01> -8052
00> -8289
01> -8077
00> -8309
01> -8097
00> -8300
01> -8086
00> -8277
01> -8052
00> -8270
01> -8054
00> -8294
01> -8081
00> -8309
01> -8101
00> -8303
01> -8091
00> -8294
01> -8067
00> -8294
01> -8058
00> -8290
01> -8073
00> -8296
01> -8097
00> -8297
01> -8097
00> -8294
01> -8069
00> -8280
01> -8062
00> -8295
01> -8078
00> -8302
01> -8092
00> -8286
01> -8076
00> -8267
01> -8046
00> -8269
01> -8043
00> -8286
01> -8067
00> -8294
01> -8087
00> -8296
01> -8080
00> -8292
01> -8061
00> -8289
01> -8066
00> -8311
01> -8096
00> -8321
01> -8115
00> -8302
01> -8090
00> -8280
01> -8052
00> -8276
01> -8046
00> -8298
01> -8079
00> -8314
01> -8099
00> -8305
01> -8084
00> -8296
01> -8064
00> -8301
01> -8072
00> -8316
01> -8094
00> -8321
01> -8104
00> -8298
01> -8079
00> -8287
01> -8059
00> -8289
01> -8057
00> -8305
01> -8077
00> -8319
01> -8106
00> -8319
01> -8094
00> -8292
01> -8054
00> -8280
01> -8060
00> -8304
01> -8099
00> -8320
01> -8132
00> -8316
01> -8118
00> -8290
01> -8072
00> -8292
01> -8066
00> -8307
01> -8082
00> -8302
01> -8096
00> -8284
01> -8082
00> -8273
01> -8056
00> -8277
01> -8051
00> -8296
01> -8076
00> -8303
01> -8104
00> -8298
01> -8100
00> -8274
01> -8061
00> -8268
01> -8047
00> -8284
01> -8058
00> -8281
01> -8068
00> -8283
01> -8067
00> -8271
01> -8054
00> -8272
01> -8050
00> -8290
01> -8074
00> -8300
01> -8099
00> -8300
01> -8097
00> -8276
01> -8063
00> -8272
01> -8049
00> -8290
01> -8071
00> -8312
01> -8093
00> -8311
01> -8092
00> -8286
01> -8076
00> -8287
01> -8061
00> -8302
01> -8079
00> -8315
01> -8094
00> -8299
01> -8079
00> -8281
01> -8056
00> -8266
01> -8047
00> -8279
01> -8067
00> -8294
01> -8087
00> -8307
01> -8092
00> -8297
01> -8069
00> -8282
01> -8056
00> -8296
01> -8087
00> -8317
01> -8111
00> -8317
01> -8100
00> -8304
01> -8071
00> -8285
01> -8067
00> -8295
01> -8083
00> -8319
01> -8103
00> -8325
01> -8099
00> -8303
01> -8074
00> -8293
01> -8066
00> -8300
01> -8097
00> -8309
01> -8124
00> -8313
01> -8121
00> -8305
01> -8093
00> -8287
01> -8079
00> -8297
01> -8101
00> -8320
01> -8119
00> -8329
01> -8102
00> -8302
01> -8086
00> -8297
01> -8086
00> -8308
01> -8099
00> -8311
01> -8119
00> -8311
01> -8114
00> -8295
01> -8083
00> -8286
01> -8074
00> -8302
01> -8106
00> -8326
01> -8126
00> -8341
01> -8121
00> -8319
01> -8088
00> -8292
01> -8071
00> -8309
01> -8095
00> -8317
01> -8107
00> -8329
01> -8097
00> -8296
01> -8071
00> -8277
01> -8067
00> -8288
01> -8084
00> -8301
01> -8106
00> -8312
01> -8101
00> -8299
01> -8069
00> -8277
01> -8051
00> -8291
01> -8072
00> -8297
01> -8089
00> -8294
01> -8071
00> -8271
01> -8044
00> -8254
01> -8013
00> -8259
01> -8017
00> -8265
01> -8019
00> -8242
01> -7976
00> -8212
01> -7945
00> -8175
01> -7902
00> -8181
01> -7898
00> -8200
01> -7902
00> -8195
01> -7876
00> -8175
01> -7843
00> -8162
01> -7814
00> -8146
01> -7821
00> -8154
01> -7816
00> -8141
01> -7797
00> -8111
01> -7769
00> -8111
01> -7758
00> -8126
01> -7786
00> -8140
01> -7802
00> -8132
01> -7791
00> -8120
01> -7766
00> -8127
01> -7762
00> -8146
01> -7801
00> -8184
01> -7849
00> -8182
01> -7857
00> -8174
01> -7828
00> -8172
01> -7816
00> -8179
01> -7853
00> -8195
01> -7894
00> -8199
01> -7898
00> -8177
01> -7867
00> -8187
01> -7860
00> -8217
01> -7887
00> -8238
01> -7926
00> -8233
01> -7950
00> -8223
01> -7932
00> -8219
01> -7924
00> -8223
01> -7933
00> -8246
01> -7957
00> -8254
01> -7964
00> -8237
01> -7940
00> -8223
01> -7932
00> -8248
01> -7962
00> -8278
01> -7997
00> -8279
01> -8004
00> -8267
01> -7985
00> -8273
01> -7989
00> -8283
01> -8017
00> -8302
01> -8041
00> -8292
01> -8021
00> -8268
01> -7992
00> -8262
01> -7992
00> -8289
01> -8036
00> -8321
01> -8067
00> -8332
01> -8072
00> -8311
01> -8042
00> -8300
01> -8036
00> -8317
01> -8056
00> -8339
01> -8097
00> -8337
01> -8089
00> -8305
01> -8054
00> -8301
01> -8039
00> -8322
01> -8059
00> -8339
01> -8078
00> -8333
01> -8089
00> -8319
01> -8074
00> -8318
01> -8062
00> -8333
01> -8072
00> -8347
01> -8095
00> -8346
01> -8101
00> -8321
01> -8082
00> -8315
01> -8067
00> -8340
01> -8086
00> -8359
01> -8115
00> -8354
01> -8114
00> -8336
01> -8086
00> -8320
01> -8074
00> -8328
01> -8088
00> -8348
01> -8120
00> -8371
01> -8117
00> -8341
01> -8093
00> -8326
01> -8074
00> -8341
01> -8086
00> -8362
01> -8124
00> -8361
01> -8130
00> -8346
01> -8117
00> -8350
01> -8101
00> -8350
01> -8099
00> -8358
01> -8124
00> -8356
01> -8122
00> -8336
01> -8087
00> -8317
01> -8063
00> -8332
01> -8084
00> -8349
01> -8120
00> -8353
01> -8117
00> -8342
01> -8087
00> -8334
01> -8076
00> -8349
01> -8104
00> -8369
01> -8125
00> -8355
01> -8111
00> -8332
01> -8085
00> -8330
01> -8072
00> -8341
01> -8092
00> -8369
01> -8121
00> -8370
01> -8120
00> -8347
01> -8101
00> -8338
01> -8099
00> -8347
01> -8112
00> -8364
01> -8132
00> -8363
01> -8114
00> -8336
01> -8074
00> -8331
01> -8061
00> -8342
01> -8090
00> -8357
01> -8124
00> -8356
01> -8127
00> -8345
01> -8107
00> -8337
01> -8086
00> -8346
01> -8096
00> -8354
01> -8119
00> -8343
01> -8112
00> -8321
01> -8078
00> -8324
01> -8063
00> -8342
01> -8090
00> -8361
01> -8114
00> -8357
01> -8119
00> -8345
01> -8103
00> -8332
01> -8084
00> -8339
01> -8099
00> -8342
01> -8108
00> -8336
01> -8099
00> -8330
01> -8074
00> -8321
01> -8060
00> -8321
01> -8072
00> -8336
01> -8094
00> -8343
01> -8101
00> -8334
01> -8084
00> -8322
01> -8069
00> -8319
01> -8079
00> -8329
01> -8094
00> -8348
01> -8101
00> -8345
01> -8095
00> -8334
01> -8075
00> -8339
01> -8091
00> -8356
01> -8117
00> -8356
01> -8114
00> -8331
01> -8078
00> -8316
01> -8067
00> -8334
01> -8084
00> -8347
01> -8107
00> -8356
01> -8121
00> -8343
01> -8097
00> -8328
01> -8076
00> -8326
01> -8088
00> -8339
01> -8119
00> -8344
01> -8127
00> -8331
01> -8105
00> -8331
01> -8087
00> -8340
01> -8094
00> -8348
01> -8119
00> -8357
01> -8124
00> -8339
01> -8091
00> -8322
01> -8071
00> -8333
01> -8094
00> -8354
01> -8125
00> -8363
01> -8136
00> -8344
01> -8109
00> -8330
01> -8091
00> -8344
01> -8110
00> -8362
01> -8144
00> -8368
01> -8151
00> -8361
01> -8127
00> -8341
01> -8101
00> -8341
01> -8102
00> -8358
01> -8128
00> -8368
01> -8142
00> -8353
01> -8120
00> -8348
01> -8107
00> -8358
01> -8119
00> -8367
01> -8137
00> -8367
01> -8140
00> -8351
01> -8116
00> -8335
01> -8098
00> -8349
01> -8107
00> -8363
01> -8128
00> -8357
01> -8140
00> -8334
01> -8115
00> -8317
01> -8087
00> -8319
01> -8096
00> -8334
01> -8126
00> -8337
01> -8127
00> -8320
01> -8096
00> -8306
01> -8076
00> -8319
01> -8092

01> -8127
00> -8364
01> -8148
00> -8347
01> -8123
00> -8321
01> -8094
00> -8321
01> -8096
00> -8341
01> -8124
00> -8351
01> -8137
00> -8343
01> -8117
00> -8326
01> -8086
00> -8326
01> -8091
00> -8339
01> -8114
00> -8346
01> -8124
00> -8336
01> -8111
00> -8321
01> -8094
00> -8325
01> -8096
00> -8341
01> -8117
00> -8341
01> -8124
00> -8317
01> -8097
00> -8315
01> -8079
00> -8326
01> -8094
00> -8339
01> -8122
00> -8341
01> -8131
00> -8326
01> -8106
00> -8316
01> -8074
00> -8319
01> -8074
00> -8334
01> -8106
00> -8334
01> -8117
00> -8318
01> -8102
00> -8317
01> -8095
00> -8325
01> -8107
00> -8341
01> -8133
00> -8346
01> -8141
00> -8326
01> -8119
00> -8307
01> -8092
00> -8320
01> -8101
00> -8343
01> -8139
00> -8351
01> -8147
00> -8340
01> -8121
00> -8318
01> -8093
00> -8322
01> -8096
00> -8346
01> -8127
00> -8350
01> -8143
00> -8342
01> -8129
00> -8331
01> -8107
00> -8332
01> -8104
00> -8354
01> -8132
00> -8365
01> -8143
00> -8346
01> -8128
00> -8322
01> -8101
00> -8316
01> -8101
00> -8334
01> -8124
00> -8347
01> -8132
00> -8336
01> -8124
00> -8331
01> -8104
00> -8330
01> -8106
00> -8351
01> -8129
00> -8354
01> -8149
00> -8332
01> -8132
00> -8314
01> -8105
00> -8312
01> -8107
00> -8332
01> -8136
00> -8344
01> -8154
00> -8329
01> -8129
00> -8317
01> -8107
00> -8325
01> -8119
00> -8342
01> -8157
00> -8354
01> -8174
00> -8342
01> -8152
00> -8324
01> -8118
00> -8317
01> -8107
00> -8337
01> -8144
00> -8351
01> -8160
00> -8341
01> -8140
00> -8317
01> -8111
00> -8323
01> -8107
00> -8340
01> -8138
00> -8342
01> -8152
00> -8322
01> -8137
00> -8307
01> -8107
00> -8302
01> -8097
00> -8308
01> -8102
00> -8311
01> -8106
00> -8297
01> -8082
00> -8267
01> -8036
00> -8254
01> -8013
00> -8259
01> -8015
00> -8246
01> -8007
00> -8213
01> -7953
00> -8190
01> -7914
00> -8193
01> -7912
00> -8203
01> -7916
00> -8191
01> -7894
00> -8157
01> -7846
00> -8135
01> -7792
00> -8125
01> -7764
00> -8119
01> -7759
00> -8107
01> -7744
00> -8080
01> -7692
00> -8046
01> -7651
00> -8029
01> -7644
00> -8042
01> -7663
00> -8065
01> -7681
00> -8058
01> -7662
00> -8037
01> -7624
00> -8036
01> -7611
00> -8051
01> -7637
00> -8064
01> -7664
00> -8057
01> -7652
00> -8046
01> -7638
00> -8051
01> -7640
00> -8076
01> -7676
00> -8102
01> -7714
00> -8102
01> -7714
00> -8092
01> -7697
00> -8103
01> -7706
00> -8126
01> -7744
00> -8140
01> -7776
00> -8136
01> -7784
00> -8129
01> -7775
00> -8141
01> -7781
00> -8165
01> -7809
00> -8189
01> -7832
00> -8184
01> -7825
00> -8173
01> -7818
00> -8179
01> -7840
00> -8209
01> -7882
00> -8228
01> -7912
00> -8222
01> -7911
00> -8211
01> -7900
00> -8217
01> -7909
00> -8234
01> -7945
00> -8242
01> -7967
00> -8231
01> -7954
00> -8217
01> -7943
00> -8231
01> -7949
00> -8256
01> -7990
00> -8282
01> -8019
00> -8272
01> -8012
00> -8265
01> -8006
00> -8267
01> -8017
00> -8284
01> -8038
00> -8291
01> -8052
00> -8275
01> -8039
00> -8266
01> -8029
00> -8279
01> -8036
00> -8296
01> -8073
00> -8304
01> -8101
00> -8298
01> -8089
00> -8287
01> -8064
00> -8289
01> -8067
00> -8314
01> -8098
00> -8322
01> -8116
00> -8311
01> -8105
00> -8296
01> -8084
00> -8296
01> -8091
00> -8311
01> -8126
00> -8334
01> -8153
00> -8328
01> -8131
00> -8312
01> -8102
00> -8316
01> -8101
00> -8329
01> -8122
00> -8340
01> -8148
00> -8331
01> -8141
00> -8316
01> -8121
00> -8314
01> -8114
00> -8333
01> -8131
00> -8341
01> -8153
00> -8323
01> -8136
00> -8299
01> -8111
00> -8293
01> -8110
00> -8305
01> -8125
00> -8326
01> -8144
00> -8332
01> -8147
00> -8313
01> -8124
00> -8309
01> -8112
00> -8325
01> -8134
00> -8331
01> -8148
00> -8321
01> -8137
00> -8297
01> -8109
00> -8301
01> -8113
00> -8326
01> -8148
00> -8339
01> -8170
00> -8326
01> -8149
00> -8312
01> -8120
00> -8306
01> -8116
00> -8319
01> -8135
00> -8327
01> -8148
00> -8314
01> -8131
00> -8292
01> -8103
00> -8291
01> -8107
00> -8305
01> -8134
00> -8322
01> -8152
00> -8326
01> -8133
00> -8309
01> -8108
00> -8307
01> -8111
00> -8331
01> -8145
00> -8343
01> -8167
00> -8337
01> -8152
00> -8307
01> -8109
00> -8297
01> -8089
00> -8312
01> -8115
00> -8327
01> -8142
00> -8329
01> -8139
00> -8312
01> -8118
00> -8307
01> -8106
00> -8318
01> -8124
00> -8321
01> -8137
00> -8318
01> -8121
00> -8310
01> -8100
00> -8307
01> -8091
00> -8315
01> -8110
00> -8314
01> -8130
00> -8305
01> -8112
00> -8290
01> -8080
00> -8284
01> -8073
00> -8297
01> -8094
00> -8311
01> -8113
00> -8306
01> -8103
00> -8292
01> -8083
00> -8282
01> -8069
00> -8296
01> -8089
00> -8314
01> -8116
00> -8310
01> -8114
00> -8297
01> -8093
00> -8301
01> -8093
00> -8314
01> -8125
00> -8327
01> -8139
00> -8311
01> -8121
00> -8294
01> -8084
00> -8294
01> -8073
00> -8307
01> -8095
00> -8329
01> -8129
00> -8318
01> -8124
00> -8299
01> -8094
00> -8303
01> -8098
00> -8313
01> -8121
00> -8318
01> -8130
00> -8311
01> -8111
00> -8294
01> -8084
00> -8295
01> -8087
00> -8316
01> -8112
00> -8324
01> -8131
00> -8310
01> -8113
00> -8293
01> -8082
00> -8292
01> -8082
00> -8312
01> -8106
00> -8324
01> -8118
00> -8317
01> -8117
00> -8309
01> -8100
00> -8308
01> -8090
00> -8321
01> -8109
00> -8335
01> -8135
00> -8332
01> -8134
00> -8316
01> -8107
00> -8297
01> -8084
00> -8312
01> -8105
00> -8329
01> -8123
00> -8324
01> -8115
00> -8301
01> -8097
00> -8297
01> -8099
00> -8312
01> -8122
00> -8322
01> -8141
00> -8313
01> -8125
00> -8293
01> -8098
00> -8297
01> -8104
00> -8313
01> -8131
00> -8327
01> -8160
00> -8329
01> -8162
00> -8314
01> -8117
00> -8309
01> -8081
00> -8317
01> -8084
00> -8326
01> -8114
00> -8324
01> -8122
00> -8299
01> -8087
00> -8291
01> -8066
00> -8306
01> -8097
00> -8323
01> -8137
00> -8322
01> -8132
00> -8305
01> -8101
00> -8300
01> -8093
00> -8312
01> -8115
00> -8331
01> -8144
00> -8322
01> -8139
00> -8297
01> -8112
00> -8291
01> -8096
00> -8309
01> -8110
00> -8333
01> -8134
00> -8321
01> -8134
00> -8299
01> -8105
00> -8292
01> -8097
00> -8306
01> -8124
00> -8321
01> -8149
00> -8324
01> -8145
00> -8301
01> -8108
00> -8292
01> -8101
00> -8311
01> -8132
00> -8327
01> -8156
00> -8320
01> -8140
00> -8302
01> -8113
00> -8296
01> -8113
00> -8312
01> -8144
00> -8319
01> -8162
00> -8308
01> -8147
00> -8299
01> -8118
00> -8299
01> -8109
00> -8314
01> -8133
00> -8331
01> -8155
00> -8330
01> -8159
00> -8311
01> -8131
00> -8297
01> -8109
00> -8309
01> -8141
00> -8330
01> -8178
00> -8330
01> -8167
00> -8307
01> -8135
00> -8295
01> -8116
00> -8309
01> -8130
00> -8331
01> -8158
00> -8330
01> -8164
00> -8312
01> -8136
00> -8312
01> -8124
00> -8332
01> -8151
00> -8349
01> -8183
00> -8341
01> -8169
00> -8314
01> -8131
00> -8296
01> -8114
00> -8309
01> -8131
00> -8334
01> -8164
00> -8331
01> -8157
00> -8312
01> -8128
00> -8302
01> -8119
00> -8316
01> -8141
00> -8331
01> -8163
00> -8328
01> -8152
00> -8312
01> -8124
00> -8311
01> -8121
00> -8320
01> -8141
00> -8332
01> -8162
00> -8330
01> -8158
00> -8312
01> -8126
00> -8299
01> -8104
00> -8310
01> -8134
00> -8330
01> -8172
00> -8328
01> -8166
00> -8307
01> -8137
00> -8297
01> -8115
00> -8306
01> -8131
00> -8326
01> -8164
00> -8327
01> -8167
00> -8310
01> -8136
00> -8307
01> -8112
00> -8313
01> -8124
00> -8328
01> -8159
00> -8336
01> -8172
00> -8331
01> -8157
00> -8319
01> -8135
00> -8322
01> -8149
00> -8334
01> -8177
00> -8330
01> -8175
00> -8318
01> -8145
00> -8312
01> -8124
00> -8325
01> -8136
00> -8344
01> -8161
00> -8346
01> -8170
00> -8328
01> -8150
00> -8311
01> -8118
00> -8324
01> -8141
00> -8344
01> -8176
00> -8344
01> -8169
00> -8330
01> -8139
00> -8324
01> -8132
00> -8340
01> -8159
00> -8354
01> -8181
00> -8351
01> -8172
00> -8329
01> -8144
00> -8316
01> -8133
00> -8322
01> -8149
00> -8340
01> -8171
00> -8341
01> -8167
00> -8321
01> -8131
00> -8309
01> -8112
00> -8321
01> -8136
00> -8341
01> -8172
00> -8331
01> -8168
00> -8312
01> -8139
00> -8297
01> -8116
00> -8313
01> -8145
00> -8336
01> -8176
00> -8324
01> -8171
00> -8299
01> -8137
00> -8303
01> -8126
00> -8322
01> -8150
00> -8337
01> -8179
00> -8333
01> -8182
00> -8309
01> -8147
00> -8297
01> -8129
00> -8304
01> -8142
00> -8334
01> -8181
00> -8337
01> -8178
00> -8309
01> -8147
00> -8294
01> -8130
00> -8305
01> -8134
00> -8319
01> -8152
00> -8315
01> -8159
00> -8304
01> -8140
00> -8302
01> -8128
00> -8320
01> -8149
00> -8335
01> -8170
00> -8328
01> -8159
00> -8309
01> -8143
00> -8290
01> -8128
00> -8303
01> -8149
00> -8336
01> -8196
00> -8344
01> -8203
00> -8325
01> -8174
00> -8315
01> -8157
00> -8332
01> -8175
00> -8354
01> -8215
00> -8351
01> -8218
00> -8330
01> -8187
00> -8323
01> -8167
00> -8336
01> -8186
00> -8354
01> -8211
00> -8347
01> -8203
00> -8326
01> -8169
00> -8309
01> -8149
00> -8319
01> -8163
00> -8327
01> -8191
00> -8334
01> -8206
00> -8325
01> -8192
00> -8317
01> -8180
00> -8330
01> -8192
00> -8351
01> -8211
00> -8354
01> -8212
00> -8333
01> -8186
00> -8311
01> -8166
00> -8310
01> -8178
00> -8337
01> -8206
00> -8349
01> -8209
00> -8336
01> -8189
00> -8327
01> -8177
00> -8341
01> -8199
00> -8354
01> -8223
00> -8349
01> -8228
00> -8327
01> -8187
00> -8313
01> -8153
00> -8326
01> -8166
00> -8347
01> -8197
00> -8351
01> -8209
00> -8341
01> -8185
00> -8315
01> -8160
00> -8321
01> -8171
00> -8342
01> -8211
00> -8346
01> -8224
00> -8329
01> -8196
00> -8323
01> -8172
00> -8334
01> -8187
00> -8351
01> -8217
00> -8345
01> -8212
00> -8332
01> -8182
00> -8326
01> -8165
00> -8331
01> -8182
00> -8350
01> -8215
00> -8354
01> -8222
00> -8331
01> -8194
00> -8318
01> -8162
00> -8333
01> -8177
00> -8352
01> -8214
00> -8351
01> -8219
00> -8326
01> -8189
00> -8303
01> -8157
00> -8317
01> -8170
00> -8344
01> -8198
00> -8352
01> -8211
00> -8339
01> -8192
00> -8316
01> -8170
00> -8322
01> -8179
00> -8352
01> -8212
00> -8371
01> -8226
00> -8359
01> -8209
00> -8344
01> -8181
00> -8348
01> -8183
00> -8364
01> -8211
00> -8366
01> -8215
00> -8346
01> -8190
00> -8329
01> -8165
00> -8339
01> -8184
00> -8360
01> -8222
00> -8369
01> -8230
00> -8347
01> -8191
00> -8327
01> -8156
00> -8331
01> -8162
00> -8348
01> -8196
00> -8352
01> -8209
00> -8337
01> -8194
00> -8327
01> -8170
00> -8326
01> -8175
00> -8342
01> -8213
00> -8361
01> -8236
00> -8346
01> -8222
00> -8326
01> -8188
00> -8327
01> -8183
00> -8351
01> -8210
00> -8362
01> -8224
00> -8346
01> -8192
00> -8324
01> -8162
00> -8331
01> -8177
00> -8348
01> -8213
00> -8354
01> -8227
00> -8341
01> -8211
00> -8327
01> -8182
00> -8333
01> -8178
00> -8353
01> -8203
00> -8359
01> -8212
00> -8341
01> -8181
00> -8312
01> -8151
00> -8326
01> -8164
00> -8351
01> -8207
00> -8356
01> -8214
00> -8341
01> -8189
00> -8321
01> -8163
00> -8321
01> -8174
00> -8346
01> -8204
00> -8352
01> -8211
00> -8327
01> -8179
00> -8306
01> -8149
00> -8316
01> -8156
00> -8332
01> -8185
00> -8338
01> -8204
00> -8326
01> -8182
00> -8306
01> -8163
00> -8302
01> -8162
00> -8333
01> -8202
00> -8349
01> -8220
00> -8334
01> -8187
00> -8316
01> -8151
00> -8321
01> -8157
00> -8331
01> -8178
00> -8336
01> -8184
00> -8324
01> -8161
00> -8311
01> -8141
00> -8308
01> -8149
00> -8331
01> -8184
00> -8349
01> -8199
00> -8342
01> -8187
00> -8330
01> -8167
00> -8332
01> -8163
00> -8356
01> -8191
00> -8353
01> -8198
00> -8332
01> -8169
00> -8315
01> -8136
00> -8320
01> -8146
00> -8347
01> -8186
00> -8353
01> -8195
00> -8341
01> -8169
00> -8329
01> -8152
00> -8334
01> -8161
00> -8353
01> -8192
00> -8355
01> -8199
00> -8339
01> -8177
00> -8317
01> -8144
00> -8314
01> -8153
00> -8336
01> -8182
00> -8344
01> -8187
00> -8331
01> -8161
00> -8307
01> -8129
00> -8313
01> -8139
00> -8331
01> -8166
00> -8339
01> -8179
00> -8329
01> -8161
00> -8314
01> -8127
00> -8313
01> -8132
00> -8332
01> -8172
00> -8346
01> -8186
00> -8331
01> -8164
00> -8309
01> -8141
00> -8316
01> -8145
00> -8328
01> -8170
00> -8331
01> -8180
00> -8316
01> -8162
00> -8307
01> -8139
00> -8309
01> -8143
00> -8330
01> -8174
00> -8339
01> -8191
00> -8327
01> -8176
00> -8309
01> -8149
00> -8311
01> -8152
00> -8323
01> -8178
00> -8335
01> -8190
00> -8326
01> -8167
00> -8311
01> -8134
00> -8314
01> -8139
00> -8332
01> -8183
00> -8342
01> -8192
00> -8326
01> -8164
00> -8301
01> -8133
00> -8302
01> -8139
00> -8321
01> -8165
00> -8326
01> -8181
00> -8324
01> -8174
00> -8314
01> -8142
00> -8321
01> -8143
00> -8340
01> -8176
00> -8344
01> -8188
00> -8335
01> -8167
00> -8317
01> -8132
00> -8316
01> -8132
00> -8324
01> -8155
00> -8337
01> -8176
00> -8332
01> -8165
00> -8315
01> -8141
00> -8313
01> -8144
00> -8330
01> -8166
00> -8339
01> -8177
00> -8322
01> -8154
00> -8298
01> -8122
00> -8309
01> -8134
00> -8332
01> -8172
00> -8351
01> -8194
00> -8340
01> -8181
00> -8316
01> -8147
00> -8317
01> -8142
00> -8336
01> -8171
00> -8346
01> -8186
00> -8334
01> -8173
00> -8314
01> -8141
00> -8324
01> -8156
00> -8342
01> -8184
00> -8352
01> -8196
00> -8341
01> -8187
00> -8319
01> -8161
00> -8319
01> -8156
00> -8335
01> -8185
00> -8347
01> -8204
00> -8346
01> -8185
00> -8331
01> -8151
00> -8331
01> -8154
00> -8350
01> -8182
00> -8355
01> -8199
00> -8344
01> -8177
00> -8327
01> -8157
00> -8333
01> -8160
00> -8356
01> -8187
00> -8359
01> -8211
00> -8349
01> -8190
00> -8334
01> -8157
00> -8341
01> -8161
00> -8359
01> -8191
00> -8364
01> -8201
00> -8350
01> -8181
00> -8331
01> -8155
00> -8328
01> -8154
00> -8357
01> -8196
00> -8377
01> -8225
00> -8366
01> -8212
00> -8342
01> -8179
00> -8339
01> -8173
00> -8357
01> -8199
00> -8373
01> -8216
00> -8354
01> -8185
00> -8322
01> -8137
00> -8313
01> -8135
00> -8337
01> -8173
00> -8349
01> -8202
00> -8346
01> -8186
00> -8331
01> -8147
00> -8324
01> -8142
00> -8336
01> -8162
00> -8346
01> -8184
00> -8339
01> -8172
00> -8312
01> -8137
00> -8310
01> -8128
00> -8333
01> -8166
00> -8348
01> -8191
00> -8334
01> -8172
00> -8310
01> -8129
00> -8307
01> -8118
00> -8319
01> -8143
00> -8342
01> -8177
00> -8337
01> -8164
00> -8321
01> -8134
00> -8324
01> -8135
00> -8338
01> -8167
00> -8354
01> -8193
00> -8349
01> -8186
00> -8331
01> -8162
00> -8329
01> -8156
00> -8349
01> -8175
00> -8356
01> -8189
00> -8351
01> -8181
00> -8329
01> -8144
00> -8321
01> -8134
00> -8346
01> -8171
00> -8360
01> -8194
00> -8352
01> -8180
00> -8337
01> -8156
00> -8334
01> -8148
00> -8351
01> -8171
00> -8367
01> -8195
00> -8355
01> -8179
00> -8327
01> -8147
00> -8321
01> -8132
00> -8340
01> -8154
00> -8362
01> -8186
00> -8356
01> -8174
00> -8331
01> -8137
00> -8326
01> -8141
00> -8342
01> -8179
00> -8349
01> -8194
00> -8341
01> -8173
00> -8326
01> -8142
00> -8332
01> -8141
00> -8357
01> -8174
00> -8365
01> -8200
00> -8350
01> -8187
00> -8329
01> -8163
00> -8335
01> -8162
00> -8358
01> -8191
00> -8375
01> -8214
00> -8367
01> -8206
00> -8355
01> -8181
00> -8347
01> -8165
00> -8356
01> -8185
00> -8360
01> -8201
00> -8345
01> -8176
00> -8335
01> -8142
00> -8333
01> -8136
00> -8349
01> -8181
00> -8364
01> -8206
00> -8356
01> -8191
00> -8334
01> -8156
00> -8335
01> -8148
00> -8351
01> -8169
00> -8364
01> -8191
00> -8361
01> -8182
00> -8344
01> -8151
00> -8334
01> -8146
00> -8357
01> -8181
00> -8376
01> -8211
00> -8366
01> -8191
00> -8344
01> -8149
00> -8335
01> -8142
00> -8349
01> -8180
00> -8364
01> -8204
00> -8352
01> -8184
00> -8332
01> -8151
00> -8336
01> -8151
00> -8354
01> -8182
00> -8369
01> -8212
00> -8357
01> -8201
00> -8331
01> -8162
00> -8329
01> -8154
00> -8339
01> -8174
00> -8354
01> -8194
00> -8351
01> -8186
00> -8336
01> -8156
00> -8331
01> -8150
00> -8346
01> -8179
00> -8359
01> -8204
00> -8346
01> -8191
00> -8323
01> -8155
00> -8322
01> -8141
00> -8339
01> -8166
00> -8356
01> -8189
00> -8352
01> -8182
00> -8329
01> -8154
00> -8321
01> -8149
00> -8343
01> -8177
00> -8357
01> -8199
00> -8343
01> -8182
00> -8326
01> -8154
00> -8325
01> -8153
00> -8333
01> -8172
00> -8349
01> -8196
00> -8347
01> -8193
00> -8336
01> -8168
00> -8325
01> -8160
00> -8339
01> -8185
00> -8357
01> -8208
00> -8356
01> -8197
00> -8327
01> -8159
00> -8318
01> -8147
00> -8324
01> -8176
00> -8344
01> -8207
00> -8341
01> -8209
00> -8325
01> -8179
00> -8324
01> -8166
00> -8336
01> -8187
00> -8351
01> -8214
00> -8346
01> -8201
00> -8321
01> -8158
00> -8300
01> -8134
00> -8308
01> -8148
00> -8338
01> -8193
00> -8346
01> -8195
00> -8329
01> -8162
00> -8319
01> -8153
00> -8336
01> -8178
00> -8351
01> -8202
00> -8341
01> -8192
00> -8312
01> -8158
00> -8302
01> -8143
00> -8327
01> -8172
00> -8353
01> -8202
00> -8352
01> -8197
00> -8332
01> -8169
00> -8328
01> -8158
00> -8338
01> -8183
00> -8357
01> -8208
00> -8348
01> -8196
00> -8326
01> -8163
00> -8319
01> -8157
00> -8333
01> -8182
00> -8352
01> -8206
00> -8351
01> -8196
00> -8329
01> -8162
00> -8320
01> -8152
00> -8331
01> -8182
00> -8345
01> -8211
00> -8341
01> -8196
00> -8321
01> -8172
00> -8316
01> -8156
00> -8333
01> -8179
00> -8354
01> -8217
00> -8356
01> -8213
00> -8332
01> -8177
00> -8319
01> -8163
00> -8333
01> -8189
00> -8347
01> -8210
00> -8340
01> -8190
00> -8318
01> -8158
00> -8317
01> -8155
00> -8332
01> -8178
00> -8356
01> -8208
00> -8351
01> -8201
00> -8317
01> -8161
00> -8307
01> -8139
00> -8325
01> -8169
00> -8342
01> -8197
00> -8334
01> -8189
00> -8314
01> -8152
00> -8302
01> -8128
00> -8317
01> -8152
00> -8334
01> -8184
00> -8326
01> -8178
00> -8306
01> -8142
00> -8298
01> -8118
00> -8307
01> -8139
00> -8329
01> -8178
00> -8336
01> -8188
00> -8322
01> -8163
00> -8310
01> -8151
00> -8324
01> -8175
00> -8347
01> -8197
00> -8349
01> -8190
00> -8323
01> -8154
00> -8310
01> -8130
00> -8324
01> -8154
00> -8342
01> -8191
00> -8341
01> -8192
00> -8322
01> -8154
00> -8310
01> -8130
00> -8326
01> -8148
00> -8347
01> -8171
00> -8348
01> -8172
00> -8328
01> -8147
00> -8316
01> -8132
00> -8331
01> -8149
00> -8349
01> -8181
00> -8352
01> -8194
00> -8339
01> -8164
00> -8331
01> -8147
00> -8349
01> -8171
00> -8366
01> -8201
00> -8362
01> -8195
00> -8336
01> -8147
00> -8324
01> -8128
00> -8342
01> -8154
00> -8366
01> -8195
00> -8368
01> -8207
00> -8346
01> -8179
00> -8333
01> -8162
00> -8350
01> -8187
00> -8371
01> -8218
00> -8369
01> -8212
00> -8357
01> -8182
00> -8341
01> -8168
00> -8353
01> -8187
00> -8367
01> -8214
00> -8363
01> -8217
00> -8347
01> -8191
00> -8342
01> -8172
00> -8354
01> -8191
00> -8375
01> -8220
00> -8371
01> -8217
00> -8349
01> -8182
00> -8342
01> -8167
00> -8351
01> -8186
00> -8369
01> -8211
00> -8377
01> -8209
00> -8361
01> -8184
00> -8346
01> -8164
00> -8356
01> -8180
00> -8367
01> -8207
00> -8364
01> -8208
00> -8346
01> -8185
00> -8341
01> -8169
00> -8353
01> -8179
00> -8371
01> -8209
00> -8374
01> -8216
00> -8350
01> -8191
00> -8334
01> -8162
00> -8352
01> -8185
00> -8373
01> -8221
00> -8374
01> -8219
00> -8359
01> -8181
00> -8336
01> -8147
00> -8346
01> -8166
00> -8364
01> -8192
00> -8364
01> -8195
00> -8348
01> -8176
00> -8339
01> -8164
00> -8350
01> -8193
00> -8377
01> -8234
00> -8372
01> -8236
00> -8350
01> -8194
00> -8336
01> -8158
00> -8349
01> -8168
00> -8360
01> -8201
00> -8369
01> -8219
00> -8357
01> -8201
00> -8342
01> -8179
00> -8346
01> -8195
00> -8367
01> -8225
00> -8374
01> -8230
00> -8354
01> -8202
00> -8336
01> -8171
00> -8351
01> -8183
00> -8373
01> -8215
00> -8372
01> -8221
00> -8353
01> -8196
00> -8338
01> -8173
00> -8354
01> -8185
00> -8372
01> -8216
00> -8379
01> -8223
00> -8356
01> -8192
00> -8340
01> -8172
00> -8348
01> -8190
00> -8373
01> -8216
00> -8381
01> -8216
00> -8359
01> -8186
00> -8346
01> -8156
00> -8351
01> -8166
00> -8371
01> -8199
00> -8380
01> -8215
00> -8368
01> -8192
00> -8358
01> -8174
00> -8369
01> -8185
00> -8382
01> -8213
00> -8377
01> -8222
00> -8351
01> -8192
00> -8341
01> -8166
00> -8357
01> -8175
00> -8378
01> -8205
00> -8379
01> -8207
00> -8362
01> -8181
00> -8349
01> -8161
00> -8354
01> -8174
00> -8371
01> -8205
00> -8375
01> -8215
00> -8353
01> -8180
00> -8331
01> -8152
00> -8347
01> -8170
00> -8370
01> -8207
00> -8366
01> -8212
00> -8346
01> -8177
00> -8331
01> -8156
00> -8341
01> -8178
00> -8356
01> -8199
00> -8352
01> -8192
00> -8344
01> -8162
00> -8329
01> -8153
00> -8337
01> -8189
00> -8361
01> -8226
00> -8365
01> -8232
00> -8355
01> -8205
00> -8341
01> -8171
00> -8336
01> -8167
00> -8347
01> -8194
00> -8353
01> -8201
00> -8351
01> -8178
00> -8337
01> -8165
00> -8348
01> -8180
00> -8367
01> -8212
00> -8359
01> -8212
00> -8341
01> -8184
00> -8332
01> -8168
00> -8340
01> -8181
00> -8361
01> -8210
00> -8367
01> -8216
00> -8341
01> -8179
00> -8326
01> -8153
00> -8333
01> -8167
00> -8353
01> -8202
00> -8356
01> -8202
00> -8342
01> -8179
00> -8326
01> -8159
00> -8330
01> -8169
00> -8349
01> -8196
00> -8359
01> -8212
00> -8347
01> -8187
00> -8325
01> -8165
00> -8325
01> -8175
00> -8348
01> -8206
00> -8354
01> -8211
00> -8336
01> -8182
00> -8326
01> -8167
00> -8338
01> -8189
00> -8356
01> -8215
00> -8359
01> -8223
00> -8344
01> -8198
00> -8325
01> -8169
00> -8332
01> -8183
00> -8362
01> -8219
00> -8363
01> -8226
00> -8347
01> -8196
00> -8329
01> -8171
00> -8337
01> -8178
00> -8352
01> -8213
00> -8362
01> -8227
00> -8348
01> -8203
00> -8332
01> -8172
00> -8336
01> -8175
00> -8351
01> -8204
00> -8351
01> -8213
00> -8328
01> -8186
00> -8321
01> -8156
00> -8326
01> -8162
00> -8337
01> -8186
00> -8339
01> -8191
00> -8329
01> -8179
00> -8321
01> -8169
00> -8332
01> -8182
00> -8352
01> -8221
00> -8362
01> -8237
00> -8345
01> -8207
00> -8324
01> -8172
00> -8324
01> -8169
00> -8341
01> -8199
00> -8357
01> -8212
00> -8342
01> -8191
00> -8319
01> -8166
00> -8324
01> -8179
00> -8350
01> -8217
00> -8366
01> -8232
00> -8355
01> -8199
00> -8339
01> -8167
00> -8342
01> -8176
00> -8359
01> -8204
00> -8367
01> -8215
00> -8356
01> -8192
00> -8346
01> -8171
00> -8357
01> -8178
00> -8372
01> -8202
00> -8372
01> -8211
00> -8354
01> -8186
00> -8335
01> -8156
00> -8336
01> -8159
00> -8352
01> -8187
00> -8354
01> -8201
00> -8341
01> -8193
00> -8330
01> -8173
00> -8341
01> -8177
00> -8356
01> -8192
00> -8360
01> -8196
00> -8338
01> -8173
00> -8312
01> -8144
00> -8317
01> -8151
00> -8342
01> -8191
00> -8356
01> -8210
00> -8349
01> -8192
00> -8334
01> -8167
00> -8336
01> -8172
00> -8345
01> -8195
00> -8347
01> -8203
00> -8349
01> -8188
00> -8337
01> -8166
00> -8344
01> -8182
00> -8369
01> -8212
00> -8380
01> -8221
00> -8359
01> -8186
00> -8332
01> -8156
00> -8337
01> -8165
00> -8367
01> -8201
00> -8380
01> -8221
00> -8362
01> -8200
00> -8340
01> -8164
00> -8344
01> -8168
00> -8364
01> -8206
00> -8369
01> -8229
00> -8350
01> -8202
00> -8330
01> -8167
00> -8334
01> -8186
00> -8360
01> -8222
00> -8372
01> -8225
00> -8354
01> -8196
00> -8337
01> -8167
00> -8336
01> -8170
00> -8351
01> -8205
00> -8366
01> -8223
00> -8364
01> -8212
00> -8344
01> -8177
00> -8339
01> -8166
00> -8353
01> -8194
00> -8363
01> -8209
00> -8347
01> -8194
00> -8326
01> -8174
00> -8329
01> -8167
00> -8345
01> -8188
00> -8349
01> -8209
00> -8336
01> -8192
00> -8326
01> -8162
00> -8330
01> -8168
00> -8342
01> -8207
00> -8344
01> -8223
00> -8331
01> -8192
00> -8317
01> -8151
00> -8319
01> -8154
00> -8339
01> -8181
00> -8352
01> -8200
00> -8337
01> -8182
00> -8319
01> -8161
00> -8329
01> -8167
00> -8348
01> -8201
00> -8357
01> -8224
00> -8350
01> -8210
00> -8329
01> -8177
00> -8323
01> -8160
00> -8343
01> -8184
00> -8354
01> -8212
00> -8339
01> -8201
00> -8322
01> -8172
00> -8327
01> -8171
00> -8354
01> -8202
00> -8371
01> -8227
00> -8361
01> -8214
00> -8346
01> -8192
00> -8349
01> -8189
00> -8366
01> -8213
00> -8369
01> -8225
00> -8356
01> -8211
00> -8334
01> -8177
00> -8332
01> -8172
00> -8353
01> -8205
00> -8361
01> -8229
00> -8357
01> -8218
00> -8339
01> -8182
00> -8336
01> -8165
00> -8356
01> -8191
00> -8371
01> -8207
00> -8359
01> -8191
00> -8341
01> -8166
00> -8336
01> -8165
00> -8346
01> -8191
00> -8358
01> -8201
00> -8357
01> -8199
00> -8342
01> -8179
00> -8335
01> -8174
00> -8354
01> -8204
00> -8371
01> -8228
00> -8355
01> -8213
00> -8329
01> -8182
00> -8327
01> -8176
00> -8347
01> -8199
00> -8361
01> -8215
00> -8356
01> -8207
00> -8340
01> -8188
00> -8337
01> -8187
00> -8359
01> -8202
00> -8369
01> -8217
00> -8358
01> -8197
00> -8343
01> -8167
00> -8345
01> -8162
00> -8366
01> -8197
00> -8374
01> -8217
00> -8355
01> -8200
00> -8329
01> -8162
00> -8337
01> -8167
00> -8357
01> -8202
00> -8369
01> -8226
00> -8363
01> -8206
00> -8346
01> -8170
00> -8342
01> -8164
00> -8359
01> -8197
00> -8372
01> -8217
00> -8360
01> -8201
00> -8336
01> -8164
00> -8336
01> -8172
00> -8362
01> -8209
00> -8382
01> -8233
00> -8375
01> -8215
00> -8356
01> -8176
00> -8347
01> -8166
00> -8359
01> -8195
00> -8370
01> -8217
00> -8361
01> -8203
00> -8342
01> -8177
00> -8342
01> -8184
00> -8368
01> -8217
00> -8372
01> -8237
00> -8359
01> -8216
00> -8347
01> -8182
00> -8345
01> -8182
00> -8359
01> -8206
00> -8366
01> -8219
00> -8347
01> -8191
00> -8325
01> -8160
00> -8322
01> -8166
00> -8340
01> -8200
00> -8351
01> -8224
00> -8350
01> -8209
00> -8336
01> -8176
00> -8329
01> -8172
00> -8345
01> -8195
00> -8362
01> -8222
00> -8347
01> -8211
00> -8324
01> -8176
00> -8321
01> -8172
00> -8342
01> -8201
00> -8366
01> -8232
00> -8359
01> -8214
00> -8328
01> -8174
00> -8316
01> -8156
00> -8329
01> -8177
00> -8352
01> -8214
00> -8354
01> -8210
00> -8339
01> -8183
00> -8340
01> -8177
00> -8354
01> -8200
00> -8357
01> -8224
00> -8347
01> -8211
00> -8332
01> -8186
00> -8334
01> -8179
00> -8349
01> -8201
00> -8366
01> -8216
00> -8350
01> -8194
00> -8319
01> -8157
00> -8317
01> -8151
00> -8336
01> -8191
00> -8361
01> -8226
00> -8354
01> -8211
00> -8324
01> -8170
00> -8322
01> -8158
00> -8341
01> -8189
00> -8353
01> -8214
00> -8352
01> -8211
00> -8338
01> -8189
00> -8329
01> -8179
00> -8341
01> -8205
00> -8359
01> -8226
00> -8356
01> -8212
00> -8329
01> -8178
00> -8324
01> -8175
00> -8345
01> -8195
00> -8354
01> -8221
00> -8337
01> -8212
00> -8317
01> -8179
00> -8324
01> -8173
00> -8342
01> -8199
00> -8355
01> -8223
00> -8352
01> -8216
00> -8323
01> -8177
00> -8321
01> -8168
00> -8344
01> -8202
00> -8361
01> -8231
00> -8360
01> -8222
00> -8342
01> -8192
00> -8331
01> -8173
00> -8341
01> -8182
00> -8356
01> -8207
00> -8349
01> -8202
00> -8331
01> -8171
00> -8331
01> -8171
00> -8349
01> -8202
00> -8359
01> -8221
00> -8350
01> -8200
00> -8328
01> -8164
00> -8314
01> -8152
00> -8328
01> -8182
00> -8350
01> -8216
00> -8351
01> -8219
00> -8328
01> -8187
00> -8322
01> -8172
00> -8336
01> -8195
00> -8344
01> -8212
00> -8331
01> -8201
00> -8317
01> -8179
00> -8319
01> -8177
00> -8336
01> -8202
00> -8352
01> -8229
00> -8350
01> -8221
00> -8335
01> -8200
00> -8324
01> -8189
00> -8337
01> -8204
00> -8349
01> -8227
00> -8357
01> -8219
00> -8338
01> -8189
00> -8331
01> -8178
00> -8346
01> -8202
00> -8365
01> -8230
00> -8357
01> -8224
00> -8337
01> -8196
00> -8335
01> -8186
00> -8354
01> -8213
00> -8370
01> -8242
00> -8364
01> -8238
00> -8344
01> -8199
00> -8336
01> -8177
00> -8349
01> -8199
00> -8368
01> -8230
00> -8361
01> -8222
00> -8345
01> -8198
00> -8344
01> -8196
00> -8365
01> -8230
00> -8380
01> -8264
00> -8367
01> -8252
00> -8345
01> -8214
00> -8348
01> -8198
00> -8366
01> -8224
00> -8386
01> -8254
00> -8389
01> -8252
00> -8372
01> -8213
00> -8361
01> -8201
00> -8372
01> -8219
00> -8381
01> -8246
00> -8372
01> -8236
00> -8353
01> -8205
00> -8348
01> -8202
00> -8362
01> -8224
00> -8377
01> -8247
00> -8376
01> -8243
00> -8354
01> -8207
00> -8348
01> -8188
00> -8362
01> -8209
00> -8376
01> -8245
00> -8372
01> -8247
00> -8347
01> -8209
00> -8341
01> -8190
00> -8359
01> -8209
00> -8376
01> -8240
00> -8367
01> -8235
00> -8347
01> -8199
00> -8336
01> -8177
00> -8351
01> -8199
00> -8372
01> -8231
00> -8368
01> -8233
00> -8344
01> -8196
00> -8329
01> -8180
00> -8346
01> -8202
00> -8367
01> -8232
00> -8373
01> -8229
00> -8357
01> -8206
00> -8349
01> -8188
00> -8364
01> -8204
00> -8381
01> -8241
00> -8377
01> -8240
00> -8349
01> -8209
00> -8336
01> -8198
00> -8357
01> -8228
00> -8382
01> -8258
00> -8384
01> -8251
00> -8365
01> -8222
00> -8353
01> -8205
00> -8359
01> -8221
00> -8370
01> -8252
00> -8364
01> -8251
00> -8347
01> -8217
00> -8342
01> -8196
00> -8357
01> -8222
00> -8379
01> -8253
00> -8377
01> -8253
00> -8355
01> -8220
00> -8337
01> -8190
00> -8352
01> -8211
00> -8374
01> -8244
00> -8373
01> -8239
00> -8354
01> -8211
00> -8346
01> -8206
00> -8356
01> -8225
00> -8368
01> -8248
00> -8362
01> -8240
00> -8339
01> -8216
00> -8336
01> -8204
00> -8355
01> -8229
00> -8375
01> -8261
00> -8374
01> -8265
00> -8354
01> -8239
00> -8344
01> -8211
00> -8355
01> -8219
00> -8373
01> -8250
00> -8374
01> -8257
00> -8354
01> -8226
00> -8342
01> -8211
00> -8353
01> -8226
00> -8376
01> -8259
00> -8377
01> -8258
00> -8354
01> -8229
00> -8347
01> -8214
00> -8358
01> -8231
00> -8375
01> -8259
00> -8379
01> -8261
00> -8354
01> -8227
00> -8345
01> -8208
00> -8351
01> -8228
00> -8368
01> -8263
00> -8363
01> -8259
00> -8341
01> -8216
00> -8337
01> -8204
00> -8357
01> -8233
00> -8366
01> -8261
00> -8365
01> -8259
00> -8347
01> -8234
00> -8334
01> -8211
00> -8351
01> -8228
00> -8368
01> -8265
00> -8371
01> -8279
00> -8347
01> -8243
00> -8338
01> -8221
00> -8349
01> -8232
00> -8375
01> -8262
00> -8380
01> -8267
00> -8362
01> -8241
00> -8347
01> -8222
00> -8359
01> -8243
00> -8377
01> -8271
00> -8382
01> -8275
00> -8363
01> -8252
00> -8354
01> -8222
00> -8367
01> -8229
00> -8377
01> -8255
00> -8379
01> -8262
00> -8364
01> -8237
00> -8348
01> -8219
00> -8362
01> -8235
00> -8385
01> -8272
00> -8381
01> -8282
00> -8359
01> -8249
00> -8342
01> -8217
00> -8348
01> -8226
00> -8374
01> -8257
00> -8378
01> -8258
00> -8354
01> -8229
00> -8347
01> -8222
00> -8361
01> -8244
00> -8382
01> -8274
00> -8380
01> -8274
00> -8357
01> -8241
00> -8349
01> -8216
00> -8356
01> -8239
00> -8378
01> -8264
00> -8386
01> -8266
00> -8365
01> -8241
00> -8355
01> -8231
00> -8366
01> -8246
00> -8379
01> -8269
00> -8376
01> -8270
00> -8361
01> -8240
00> -8342
01> -8218
00> -8352
01> -8234
00> -8377
01> -8271
00> -8380
01> -8271
00> -8356
01> -8237
00> -8341
01> -8218
00> -8351
01> -8231
00> -8376
01> -8263
00> -8379
01> -8263
00> -8361
01> -8234
00> -8346
01> -8212
00> -8358
01> -8232
00> -8386
01> -8262
00> -8389
01> -8271
00> -8372
01> -8248
00> -8361
01> -8226
00> -8364
01> -8230
00> -8379
01> -8256
00> -8384
01> -8264
00> -8366
01> -8238
00> -8354
01> -8222
00> -8374
01> -8243
00> -8391
01> -8280
00> -8387
01> -8276
00> -8362
01> -8235
00> -8347
01> -8207
00> -8350
01> -8216
00> -8371
01> -8245
00> -8377
01> -8254
00> -8368
01> -8236
00> -8357
01> -8211
00> -8367
01> -8224
00> -8388
01> -8255
00> -8384
01> -8251
00> -8358
01> -8221
00> -8356
01> -8214
00> -8367
01> -8228
00> -8379
01> -8248
00> -8381
01> -8254
00> -8365
01> -8224
00> -8352
01> -8201
00> -8352
01> -8213
00> -8362
01> -8235
00> -8368
01> -8236
00> -8354
01> -8218
00> -8343
01> -8198
00> -8355
01> -8215
00> -8374
01> -8251
00> -8374
01> -8264
00> -8361
01> -8237
00> -8344
01> -8209
00> -8350
01> -8212
00> -8373
01> -8245
00> -8385
01> -8265
00> -8359
01> -8237
00> -8336
01> -8199
00> -8349
01> -8214
00> -8374
01> -8257
00> -8378
01> -8271
00> -8359
01> -8250
00> -8344
01> -8224
00> -8342
01> -8232
00> -8366
01> -8261
00> -8376
01> -8269
00> -8361
01> -8239
00> -8347
01> -8209
00> -8356
01> -8213
00> -8364
01> -8244
00> -8366
01> -8261
00> -8348
01> -8237
00> -8336
01> -8206
00> -8349
01> -8216
00> -8378
01> -8258
00> -8387
01> -8274
00> -8367
01> -8242
00> -8351
01> -8209
00> -8353
01> -8207
00> -8366
01> -8236
00> -8374
01> -8250
00> -8357
01> -8226
00> -8341
01> -8197
00> -8346
01> -8209
00> -8370
01> -8236
00> -8367
01> -8252
00> -8349
01> -8232
00> -8334
01> -8211
00> -8348
01> -8222
00> -8372
01> -8254
00> -8384
01> -8264
00> -8368
01> -8239
00> -8344
01> -8204
00> -8356
01> -8213
00> -8381
01> -8246
00> -8381
01> -8251
00> -8367
01> -8225
00> -8354
01> -8206
00> -8359
01> -8217
00> -8367
01> -8237
00> -8371
01> -8245
00> -8357
01> -8219
00> -8336
01> -8197
00> -8344
01> -8209
00> -8376
01> -8246
00> -8376
01> -8260
00> -8357
01> -8235
00> -8341
01> -8204
00> -8350
01> -8217
00> -8374
01> -8246
00> -8381
01> -8258
00> -8362
01> -8231
00> -8343
01> -8202
00> -8350
01> -8214
00> -8372
01> -8251
00> -8376
01> -8257
00> -8362
01> -8231
00> -8351
01> -8211
00> -8369
01> -8230
00> -8387
01> -8258
00> -8389
01> -8272
00> -8372
01> -8251
00> -8352
01> -8218
00> -8350
01> -8218
00> -8368
01> -8245
00> -8385
01> -8265
00> -8367
01> -8249
00> -8353
01> -8219
00> -8356
01> -8219
00> -8371
01> -8247
00> -8381
01> -8263
00> -8369
01> -8246
00> -8355
01> -8218
00> -8350
01> -8221
00> -8364
01> -8258
00> -8372
01> -8273
00> -8365
01> -8258
00> -8353
01> -8229
00> -8355
01> -8230
00> -8372
01> -8251
00> -8384
01> -8262
00> -8367
01> -8244
00> -8349
01> -8221
00> -8355
01> -8229
00> -8380
01> -8264
00> -8391
01> -8284
00> -8376
01> -8266
00> -8364
01> -8239
00> -8361
01> -8238
00> -8372
01> -8256
00> -8376
01> -8263
00> -8366
01> -8242
00> -8350
01> -8220
00> -8349
01> -8227
00> -8372
01> -8262
00> -8386
01> -8278
00> -8369
01> -8255
00> -8350
01> -8217
00> -8345
01> -8211
00> -8363
01> -8245
00> -8373
01> -8259
00> -8362
01> -8245
00> -8345
01> -8219
00> -8336
01> -8215
00> -8354
01> -8246
00> -8377
01> -8272
00> -8362
01> -8252
00> -8345
01> -8224
00> -8349
01> -8230
00> -8364
01> -8254
00> -8362
01> -8264
00> -8357
01> -8241
00> -8347
01> -8219
00> -8352
01> -8226
00> -8369
01> -8260
00> -8376
01> -8276
00> -8361
01> -8252
00> -8341
01> -8220
00> -8347
01> -8222
00> -8368
01> -8249
00> -8380
01> -8266
00> -8365
01> -8242
00> -8346
01> -8218
00> -8348
01> -8230
00> -8364
01> -8251
00> -8380
01> -8271
00> -8371
01> -8259
00> -8352
01> -8229
00> -8350
01> -8223
00> -8366
01> -8247
00> -8371
01> -8266
00> -8358
01> -8254
00> -8342
01> -8219
00> -8339
01> -8212
00> -8357
01> -8241
00> -8361
01> -8260
00> -8341
01> -8245
00> -8323
01> -8214
00> -8329
01> -8213
00> -8355
01> -8254
00> -8373
01> -8284
00> -8360
01> -8259
00> -8336
01> -8219
00> -8336
01> -8216
00> -8349
01> -8232
00> -8356
01> -8242
00> -8345
01> -8238
00> -8336
01> -8215
00> -8348
01> -8223
00> -8372
01> -8251
00> -8376
01> -8269
00> -8356
01> -8244
00> -8339
01> -8207
00> -8339
01> -8208
00> -8361
01> -8235
00> -8374
01> -8252
00> -8362
01> -8237
00> -8340
01> -8200
00> -8339
01> -8204
00> -8365
01> -8248
00> -8372
01> -8266
00> -8352
01> -8246
00> -8335
01> -8215
00> -8347
01> -8213
00> -8379
01> -8244
00> -8397
01> -8265
00> -8379
01> -8245
00> -8347
01> -8209
00> -8342
01> -8213
00> -8366
01> -8251
00> -8374
01> -8263
00> -8367
01> -8238
00> -8344
01> -8204
00> -8350
01> -8207
00> -8365
01> -8247
00> -8384
01> -8276
00> -8379
01> -8265
00> -8361
01> -8229
00> -8354
01> -8222
00> -8371
01> -8250
00> -8375
01> -8266
00> -8366
01> -8249
00> -8354
01> -8227
00> -8363
01> -8228
00> -8379
01> -8244
00> -8386
01> -8261
00> -8376
01> -8250
00> -8363
01> -8230
00> -8366
01> -8233
00> -8377
01> -8246
00> -8386
01> -8264
00> -8374
01> -8248
00> -8360
01> -8217
00> -8355
01> -8216
00> -8373
01> -8237
00> -8395
01> -8255
00> -8379
01> -8240
00> -8359
01> -8218
00> -8364
01> -8216
00> -8381
01> -8237
00> -8390
01> -8254
00> -8377
01> -8242
00> -8358
01> -8214
00> -8349
01> -8211
00> -8370
01> -8238
00> -8379
01> -8265
00> -8364
01> -8247
00> -8346
01> -8217
00> -8337
01> -8208
00> -8356
01> -8239
00> -8373
01> -8261
00> -8369
01> -8258
00> -8351
01> -8230
00> -8343
01> -8221
00> -8355
01> -8249
00> -8371
01> -8266
00> -8359
01> -8249
00> -8349
01> -8232
00> -8347
01> -8221
00> -8362
01> -8252
00> -8384
01> -8279
00> -8376
01> -8266
00> -8352
01> -8226
00> -8352
01> -8212
00> -8372
01> -8251
00> -8384
01> -8269
00> -8376
01> -8256
00> -8345
01> -8217
00> -8339
01> -8201
00> -8359
01> -8224
00> -8377
01> -8243
00> -8351
01> -8217
00> -8318
01> -8169
00> -8298
01> -8142
00> -8292
01> -8132
00> -8282
01> -8127
00> -8287
01> -8120
00> -8281
01> -8082
00> -8255
01> -8045
00> -8249
01> -8050
00> -8248
01> -8043
00> -8224
01> -8006
00> -8186
01> -7946
00> -8166
01> -7909
00> -8176
01> -7917
00> -8186
01> -7934
00> -8160
01> -7919
00> -8136
01> -7862
00> -8136
01> -7843
00> -8162
01> -7891
00> -8182
01> -7931
00> -8182
01> -7926
00> -8169
01> -7899
00> -8180
01> -7910
00> -8196
01> -7944
00> -8214
01> -7978
00> -8216
01> -7973
00> -8212
01> -7955
00> -8212
01> -7967
00> -8234
01> -8016
00> -8251
01> -8053
00> -8253
01> -8053
00> -8250
01> -8034
00> -8264
01> -8039
00> -8282
01> -8082
00> -8312
01> -8136
00> -8319
01> -8124
00> -8293
01> -8089
00> -8282
01> -8079
00> -8302
01> -8109
00> -8336
01> -8142
00> -8323
01> -8133
00> -8309
01> -8121
00> -8311
01> -8141
00> -8336
01> -8169
00> -8352
01> -8199
00> -8355
01> -8206
00> -8327
01> -8170
00> -8342
01> -8149
00> -8353
01> -8181
00> -8364
01> -8216
00> -8359
01> -8212
00> -8337
01> -8196
00> -8333
01> -8196
00> -8354
01> -8229
00> -8369
01> -8259
00> -8374
01> -8255
00> -8364
01> -8222
00> -8352
01> -8224
00> -8370
01> -8252
00> -8396
01> -8283
00> -8394
01> -8284
00> -8382
01> -8247
00> -8359
01> -8236
00> -8369
01> -8276
00> -8383
01> -8286
00> -8375
01> -8262
00> -8355
01> -8228
00> -8354
01> -8219
00> -8384
01> -8248
00> -8389
01> -8281
00> -8369
01> -8271
00> -8346
01> -8241
00> -8341
01> -8225
00> -8354
01> -8244
00> -8377
01> -8274
00> -8374
01> -8262
00> -8351
01> -8227
00> -8349
01> -8221
00> -8367
01> -8247
00> -8379
01> -8274
00> -8369
01> -8262
00> -8361
01> -8221
00> -8346
01> -8206
00> -8351
01> -8232
00> -8367
01> -8257
00> -8365
01> -8249
00> -8356
01> -8209
00> -8341
01> -8202
00> -8356
01> -8239
00> -8368
01> -8255
00> -8357
01> -8243
00> -8332
01> -8226
00> -8330
01> -8214
00> -8350
01> -8227
00> -8367
01> -8250
00> -8361
01> -8252
00> -8327
01> -8226
00> -8322
01> -8209
00> -8338
01> -8227
00> -8358
01> -8256
00> -8372
01> -8251
00> -8335
01> -8215
00> -8320
01> -8217
00> -8336
01> -8239
00> -8352
01> -8272
00> -8355
01> -8257
00> -8335
01> -8232
00> -8324
01> -8227
00> -8339
01> -8241
00> -8361
01> -8261
00> -8353
01> -8250
00> -8330
01> -8215
00> -8324
01> -8186
00> -8332
01> -8214
00> -8353
01> -8247
00> -8332
01> -8241
00> -8321
01> -8202
00> -8321
01> -8198
00> -8355
01> -8231
00> -8371
01> -8256
00> -8362
01> -8248
00> -8334
01> -8221
00> -8334
01> -8205
00> -8354
01> -8233
00> -8375
01> -8266
00> -8394
01> -8262
00> -8360
01> -8222
00> -8337
01> -8197
00> -8339
01> -8219
00> -8347
01> -8249
00> -8340
01> -8221
00> -8308
01> -8177
00> -8306
01> -8169
00> -8319
01> -8207
00> -8342
01> -8246
00> -8361
01> -8262
00> -8336
01> -8217
00> -8327
01> -8195
00> -8337
01> -8202
00> -8357
01> -8253
00> -8353
01> -8241
00> -8327
01> -8188
00> -8322
01> -8158
00> -8324
01> -8197
00> -8338
01> -8215
00> -8338
01> -8218
00> -8305
01> -8187
00> -8289
01> -8170
00> -8320
01> -8199
00> -8359
01> -8226
00> -8339
01> -8229
00> -8300
01> -8199
00> -8295
01> -8162
00> -8301
01> -8170
00> -8327
01> -8197
00> -8330
01> -8196
00> -8331
01> -8167
00> -8312
01> -8151
00> -8301
01> -8179
00> -8316
01> -8217
00> -8297
01> -8201
00> -8276
01> -8169
00> -8301
01> -8148
00> -8321
01> -8183
00> -8327
01> -8207
00> -8322
01> -8200
00> -8295
01> -8170
00> -8292
01> -8150
00> -8307
01> -8169
00> -8313
01> -8220
00> -8321
01> -8217
00> -8305
01> -8181
00> -8304
01> -8173
00> -8295
01> -8192
00> -8332
01> -8188
00> -8334
01> -8189
00> -8292
01> -8154
00> -8271
01> -8155
00> -8290
01> -8171
00> -8306
01> -8184
00> -8312
01> -8194
00> -8308
01> -8179
00> -8277
01> -8159
00> -8291
01> -8162
00> -8311
01> -8199
00> -8308
01> -8199
00> -8297
01> -8171
00> -8322
01> -8123
00> -8317
01> -8139
00> -8299
01> -8228
00> -8308
01> -8218
00> -8291
01> -8192
00> -8277
01> -8151
00> -8281
01> -8185
00> -8284
01> -8205
00> -8286
01> -8200
00> -8272
01> -8177
00> -8277
01> -8158
00> -8306
01> -8167
00> -8354
01> -8186
00> -8331
01> -8209
00> -8294
01> -8195
00> -8286
01> -8174
00> -8311
01> -8174
00> -8328
01> -8205
00> -8307
01> -8204
00> -8294
01> -8176
00> -8281
01> -8172
00> -8301
01> -8199
00> -8342
01> -8242
00> -8366
01> -8214
00> -8322
01> -8212
00> -8308
01> -8177
00> -8305
01> -8188
00> -8322
01> -8222
00> -8347
01> -8241
00> -8330
01> -8219
00> -8313
01> -8179
00> -8312
01> -8194
00> -8334
01> -8243
00> -8347
01> -8225
00> -8321
01> -8212
00> -8331
01> -8202
00> -8342
01> -8194
00> -8358
01> -8225
00> -8328
01> -8240
00> -8300
01> -8232
00> -8314
01> -8199
00> -8330
01> -8216
00> -8350
01> -8259
00> -8340
01> -8276
00> -8334
01> -8237
00> -8320
01> -8196
00> -8314
01> -8197
00> -8337
01> -8237
00> -8356
01> -8267
00> -8353
01> -8245
00> -8337
01> -8222
00> -8331
01> -8236
00> -8363
01> -8260
