# SEGGER J-Link RTT Viewer V6.62 Terminal Log File
# Compiled: 16:34:01 on Jan 24 2020
# Logging started @ 07 Jun 2024 22:11:12

00> -10539
01> -17546
00> -10554
01> -17573
00> -10561
01> -17559
00> -10537
01> -17528
00> -10522
01> -17516
00> -10526
01> -17561
00> -10548
01> -17574
00> -10540
01> -17540
00> -10503
01> -17502
00> -10509
01> -17487
00> -10516
01> -17526
00> -10551
01> -17557
00> -10545
01> -17547
00> -10534
01> -17492
00> -10533
01> -17452
00> -10534
01> -17476
00> -10541
01> -17496
00> -10530
01> -17470
00> -10521
01> -17427
00> -10506
01> -17396
00> -10511
01> -17426
00> -10507
01> -17439
00> -10489
01> -17399
00> -10507
01> -17369
00> -10483
01> -17361
00> -10480
01> -17379
00> -10480
01> -17396
00> -10491
01> -17387
00> -10461
01> -17336
00> -10431
01> -17300
00> -10444
01> -17331
00> -10456
01> -17356
00> -10439
01> -17299
00> -10396
01> -17234
00> -10379
01> -17181
00> -10381
01> -17206
00> -10362
01> -17231
00> -10361
01> -17209
00> -10337
01> -17133
00> -10322
01> -17097
00> -10342
01> -17115
00> -10341
01> -17143
00> -10319
01> -17120
00> -10292
01> -17050
00> -10285
01> -17020
00> -10306
01> -17059
00> -10301
01> -17092
00> -10285
01> -17058
00> -10249
01> -16997
00> -10230
01> -16985
00> -10254
01> -17026
00> -10279
01> -17060
00> -10267
01> -17030
00> -10242
01> -16971
00> -10234
01> -16943
00> -10229
01> -16964
00> -10242
01> -16988
00> -10254
01> -16976
00> -10223
01> -16936
00> -10197
01> -16912
00> -10218
01> -16940
00> -10226
01> -16986
00> -10226
01> -16994
00> -10197
01> -16928
00> -10165
01> -16880
00> -10183
01> -16921
00> -10229
01> -16971
00> -10228
01> -16961
00> -10185
01> -16889
00> -10169
01> -16876
00> -10195
01> -16925
00> -10229
01> -16991
00> -10244
01> -16984
00> -10202
01> -16938
00> -10195
01> -16929
00> -10214
01> -16973
01> 
00> -10238
01> -17029
00> -10262
01> -17039
00> -10244
01> -16996
00> -10236
01> -16987
00> -10247
01> -17030
00> -10276
01> -17089
00> -10279
01> -17087
00> -10270
01> -17052
00> -10256
01> -17027
00> -10272
01> -17060
00> -10294
01> -17128
00> -10291
01> -17121
00> -10282
01> -17088
00> -10280
01> -17089
00> -10299
01> -17139
00> -10327
01> -17194
00> -10336
01> -17199
00> -10324
01> -17146
00> -10299
01> -17130
00> -10318
01> -17167
00> -10345
01> -17226
00> -10346
01> -17222
00> -10319
01> -17172
00> -10320
01> -17161
00> -10342
01> -17197
00> -10377
01> -17252
00> -10389
01> -17270
00> -10368
01> -17237
00> -10356
01> -17206
00> -10356
01> -17225
00> -10378
01> -17277
00> -10393
01> -17279
00> -10369
01> -17229
00> -10354
01> -17211
00> -10371
01> -17234
00> -10386
01> -17280
00> -10387
01> -17280
00> -10359
01> -17224
00> -10341
01> -17196
00> -10357
01> -17238
00> -10401
01> -17301
00> -10418
01> -17290
00> -10397
01> -17223
00> -10379
01> -17191
00> -10401
01> -17221
00> -10420
01> -17247
00> -10413
01> -17238
00> -10397
01> -17196
00> -10387
01> -17163
00> -10401
01> -17191
00> -10428
01> -17244
00> -10426
01> -17239
00> -10399
01> -17200
00> -10388
01> -17170
00> -10408
01> -17200
00> -10432
01> -17246
00> -10429
01> -17234
00> -10397
01> -17191
00> -10386
01> -17170
00> -10402
01> -17208
00> -10433
01> -17266
00> -10445
01> -17276
00> -10416
01> -17226
00> -10405
01> -17189
00> -10430
01> -17226
00> -10452
01> -17277
00> -10451
01> -17278
00> -10413
01> -17221
00> -10391
01> -17174
00> -10411
01> -17211
00> -10439
01> -17275
00> -10457
01> -17291
00> -10442
01> -17236
00> -10410
01> -17188
00> -10422
01> -17206
00> -10425
01> -17257
00> -10436
01> -17267
00> -10421
01> -17234
00> -10394
01> -17202
00> -10411
01> -17226
00> -10437
01> -17268
00> -10433
01> -17273
00> -10409
01> -17207
00> -10396
01> -17161
00> -10402
01> -17198
00> -10416
01> -17234
00> -10431
01> -17240
00> -10410
01> -17197
00> -10367
01> -17155
00> -10361
01> -17153
00> -10384
01> -17181
00> -10382
01> -17182
00> -10346
01> -17112
00> -10326
01> -17071
00> -10322
01> -17070
00> -10343
01> -17086
00> -10321
01> -17079
00> -10281
01> -17006
00> -10256
01> -16923
00> -10244
01> -16911
00> -10251
01> -16946
00> -10236
01> -16951
00> -10181
01> -16867
00> -10142
01> -16802
00> -10150
01> -16810
00> -10170
01> -16844
00> -10186
01> -16857
00> -10181
01> -16816
00> -10130
01> -16766
00> -10109
01> -16756
00> -10120
01> -16795
00> -10158
01> -16821
00> -10140
01> -16772
00> -10094
01> -16724
00> -10101
01> -16748
00> -10136
01> -16794
00> -10159
01> -16817
00> -10157
01> -16763
00> -10128
01> -16738
00> -10144
01> -16772
00> -10180
01> -16849
00> -10187
01> -16875
00> -10170
01> -16831
00> -10162
01> -16808
00> -10192
01> -16846
00> -10223
01> -16914
00> -10229
01> -16930
00> -10197
01> -16902
00> -10201
00> -10157
01> -15962
00> -10145
01> -15935
00> -10128
01> -15887
00> -10109
01> -15871
00> -10134
01> -15924
00> -10144
01> -15957
00> -10140
01> -15925
00> -10131
01> -15884
00> -10124
01> -15871
00> -10132
01> -15918
00> -10157
01> -15957
00> -10144
01> -15922
00> -10127
01> -15871
00> -10118
01> -15881
00> -10138
01> -15917
00> -10157
01> -15943
00> -10142
01> -15916
00> -10122
01> -15864
00> -10120
01> -15861
00> -10130
01> -15907
00> -10152
01> -15944
00> -10136
01> -15915
00> -10111
01> -15871
00> -10112
01> -15862
00> -10127
01> -15901
00> -10150
01> -15932
00> -10142
01> -15921
00> -10133
01> -15882
00> -10132
01> -15862
00> -10132
01> -15882
00> -10137
01> -15901
00> -10131
01> -15910
00> -10116
01> -15866
00> -10109
01> -15834
00> -10127
01> -15856
00> -10129
01> -15889
00> -10114
01> -15866
00> -10096
01> -15824
00> -10099
01> -15801
00> -10111
01> -15825
00> -10118
01> -15856
00> -10111
01> -15827
00> -10076
01> -15778
00> -10065
01> -15751
00> -10064
01> -15764
00> -10083
01> -15809
00> -10081
01> -15810
00> -10062
01> -15769
00> -10057
01> -15738
00> -10081
01> -15769
00> -10087
01> -15806
00> -10068
01> -15793
00> -10057
01> -15730
00> -10051
01> -15713
00> -10065
01> -15764
00> -10089
01> -15808
00> -10091
01> -15798
00> -10070
01> -15760
00> -10057
01> -15745
00> -10066
01> -15789
00> -10081
01> -15816
00> -10082
01> -15787
00> -10047
01> -15737
00> -10048
01> -15718
00> -10069
01> -15748
00> -10090
01> -15779
00> -10078
01> -15772
00> -10062
01> -15747
00> -10056
01> -15754
00> -10069
01> -15796
00> -10104
01> -15820
00> -10099
01> -15799
00> -10071
01> -15756
00> -10040
01> -15738
00> -10069
01> -15769
00> -10096
01> -15800
00> -10079
01> -15784
00> -10062
01> -15754
00> -10062
01> -15758
00> -10072
01> -15787
00> -10091
01> -15801
00> -10084
01> -15779
00> -10059
01> -15736
00> -10042
01> -15721
00> -10077
01> -15774
00> -10102
01> -15817
00> -10096
01> -15802
00> -10071
01> -15757
00> -10075
01> -15724
00> -10079
01> -15760
00> -10075
01> -15809
00> -10076
01> -15796
00> -10067
01> -15764
00> -10075
01> -15729
00> -10081
01> -15736
00> -10094
01> -15793
00> -10079
01> -15777
00> -10062
01> -15707
00> -10039
01> -15699
00> -10058
01> -15750
00> -10057
01> -15764
00> -10075
01> -15737
00> -10048
01> -15697
00> -10031
01> -15673
00> -10055
01> -15682
00> -10067
01> -15681
00> -10012
01> -15698
00> -9999
01> -15632
00> -9967
01> -15611
00> -9944
01> -15629
00> -9940
01> -15632
00> -9955
01> -15576
00> -9917
01> -15499
00> -9851
01> -15441
00> -9831
01> -15424
00> -9873
01> -15443
00> -9859
01> -15414
00> -9766
01> -15294
00> -9806
01> -15202
00> -9794
01> -15257
00> -9747
01> -15286
00> -9747
01> -15266
00> -9713
01> -15200
00> -9700
01> -15164
00> -9712
01> -15188
00> -9734
01> -15206
00> -9809
01> -15150
00> -9748
01> -15154
00> -9737
01> -15188
00> -9721
01> -15211
00> -9705
01> -15194
00> -9694
01> -15153
00> -9718
01> -15111
00> -9688
01> -15152
00> -9706
01> -15206
00> -9782
01> -15221
00> -9803
01> -15223
00> -9801
01> -15157
00> -9743
01> -15134
00> -9638
01> -15189
00> -9729
01> -15270
00> -9765
01> -15230
00> -9755
01> -15225
00> -9762
01> -15209
00> -9781
01> -15271
00> -9804
01> -15250
00> -9801
01> -15259
00> -9767
01> -15296
00> -9762
01> -15326
00> -9775
01> -15309
00> -9819
01> -15312
00> -9804
01> -15366
00> -9879
01> -15304
00> -9979
01> -15234
00> -9926
01> -15364
00> -9851
01> -15387
00> -9854
01> -15396
00> -9822
01> -15434
00> -9788
01> -15413
00> -9812
01> -15448
00> -9889
01> -15421
00> -9903
01> -15404
00> -9924
01> -15391
00> -9936
01> -15425
00> -9929
01> -15374
00> -9904
01> -15451
00> -9884
01> -15466
00> -9906
01> -15469
00> -9934
01> -15507
00> -9911
01> -15506
00> -9892
01> -15504
00> -9908
01> -15527
00> -9908
01> -15442
00> -9890
01> -15495
00> -9927
01> -15491
00> -10039
01> -15506
00> -10021
01> -15567
00> -9848
01> -15484
00> -9964
01> -15437
00> -9981
01> -15472
00> -9918
01> -15606
00> -9932
01> -15582
00> -9982
01> -15555
00> -9916
01> -15543
00> -9916
01> -15544
00> -9982
01> -15513
00> -10107
01> -15481
00> -9922
01> -15540
00> -9889
01> -15502
00> -9903
01> -15524
00> -9980
01> -15586
00> -9960
01> -15547
00> -9877
01> -15559
00> -9906
01> -15489
00> -10051
01> -15532
00> -10026
01> -15617
00> -9959
01> -15553
00> -9952
01> -15488
00> -9953
01> -15526
00> -9928
01> -15557
00> -9921
01> -15594
00> -10019
01> -15516
00> -9981
01> -15576
00> -9911
01> -15591
00> -9942
01> -15594
00> -10035
01> -15556
00> -9982
01> -15554
00> -9975
01> -15481
00> -10043
01> -15343
00> -9990
01> -15512
00> -9946
01> -15595
00> -9964
01> -15678
00> -10039
01> -15606
00> -10015
01> -15507
00> -9937
01> -15601
00> -9936
01> -15625
00> -9967
01> -15581
00> -9976
01> -15542
00> -9907
01> -15503
00> -9971
01> -15517
00> -10064
01> -15599
00> -10034
01> -15613
00> -9955
01> -15450
00> -9992
01> -15437
00> -9999
01> -15570
00> -10124
01> -15556
00> -10046
01> -15615
00> -9977
01> -15539
00> -10013
01> -15469
00> -9993
01> -15547
00> -10002
01> -15606
00> -10022
01> -15552
00> -10016
01> -15486
00> -10043
01> -15501
00> -9969
01> -15537
00> -9992
01> -15561
00> -9976
01> -15521
00> -10009
01> -15426
00> -9937
01> -15429
00> -9979
01> -15481
00> -10024
01> -15499
00> -10009
01> -15545
00> -9941
01> -15524
00> -9943
01> -15479
00> -9989
01> -15522
00> -10000
01> -15579
00> -9981
01> -15521
00> -9963
01> -15446
00> -9972
01> -15433
00> -9998
01> -15495
00> -10011
01> -15530
00> -10009
01> -15559
00> -9967
01> -15516
00> -9953
01> -15473
00> -9963
01> -15468
00> -9971
01> -15510
00> -9980
01> -15526
00> -9988
01> -15485
00> -9974
01> -15432
00> -9976
01> -15462
00> -10021
01> -15520
00> -10003
01> -15531
00> -9967
01> -15474
00> -9962
01> -15457
00> -9963
01> -15461
00> -9970
01> -15526
00> -10014
01> -15551
00> -9989
01> -15494
00> -9949
01> -15430
00> -9968
01> -15431
00> -9982
01> -15516
00> -9992
01> -15524
00> -9952
01> -15483
00> -9944
01> -15458
00> -9962
01> -15473
00> -9987
01> -15506
00> -9990
01> -15512
00> -9958
01> -15455
00> -9921
01> -15431
00> -9930
01> -15442
00> -9963
01> -15547
00> -10017
01> -15601
00> -9996
01> -15546
00> -9964
01> -15520
00> -9961
01> -15520
00> -9989
01> -15552
00> -9998
01> -15567
00> -9991
01> -15526
00> -9975
01> -15492
00> -9971
01> -15497
00> -9981
01> -15556
00> -9991
01> -15567
00> -9989
01> -15497
00> -9943
01> -15516
00> -9959

00> -9989
01> -15574
00> -10011
01> -15563
00> -9964
01> -15514
00> -9920
01> -15461
00> -9949
01> -15467
00> -9983
01> -15533
00> -9990
01> -15567
00> -9961
01> -15526
00> -9941
01> -15477
00> -9960
01> -15501
00> -9998
01> -15559
00> -9976
01> -15537
00> -9927
01> -15499
00> -9921
01> -15503
00> -9956
01> -15525
00> -10004
01> -15577
00> -9992
01> -15536
00> -9934
01> -15457
00> -9911
01> -15431
00> -9938
01> -15469
00> -9985
01> -15474
00> -9966
01> -15519
00> -9940
01> -15510
00> -9952
01> -15444
00> -9958
01> -15457
00> -9966
01> -15539
00> -9968
01> -15571
00> -9959
01> -15501
00> -9929
01> -15439
00> -9924
01> -15437
00> -9938
01> -15511
00> -9963
01> -15559
00> -9955
01> -15456
00> -9922
01> -15381
00> -9914
01> -15432
00> -9940
01> -15481
00> -9952
01> -15496
00> -9926
01> -15444
00> -9919
01> -15413
00> -9914
01> -15441
00> -9950
01> -15476
00> -9955
01> -15500
00> -9950
01> -15472
00> -9921
01> -15431
00> -9945
01> -15415
00> -9944
01> -15469
00> -9934
01> -15495
00> -9921
01> -15419
00> -9884
01> -15409
00> -9911
01> -15433
00> -9946
01> -15477
00> -9971
01> -15505
00> -9942
01> -15464
00> -9917
01> -15411
00> -9918
01> -15414
00> -9926
01> -15475
00> -9932
01> -15504
00> -9916
01> -15461
00> -9928
01> -15397
00> -9937
01> -15356
00> -9952
01> -15397
00> -9942
01> -15509
00> -9940
01> -15526
00> -9910
01> -15447
00> -9919
01> -15409
00> -9954
01> -15458
00> -9969
01> -15489
00> -9942
01> -15435
00> -9907
01> -15395
00> -9921
01> -15404
00> -9962
01> -15477
00> -9977
01> -15532
00> -9959
01> -15508
00> -9935
01> -15416
00> -9926
01> -15398
00> -9937
01> -15438
00> -9933
01> -15446
00> -9950
01> -15437
00> -9942
01> -15427
00> -9941
01> -15476
00> -9973
01> -15489
00> -9967
01> -15491
00> -9952
01> -15449
00> -9923
01> -15409
00> -9919
01> -15421
00> -9956
01> -15472
00> -9986
01> -15493
00> -9962
01> -15460
00> -9933
01> -15411
00> -9954
01> -15427
00> -10004
01> -15478
00> -10010
01> -15499
00> -9982
01> -15485
00> -9957
01> -15452
00> -9944
01> -15439
00> -9978
01> -15463
00> -10015
01> -15479
00> -9984
01> -15442
00> -9967
01> -15392
00> -9968
01> -15397
00> -9982
01> -15466
00> -9996
01> -15498
00> -9994
01> -15457
00> -9979
01> -15400
00> -9969
01> -15396
00> -9984
01> -15456
00> -10004
01> -15538
00> -10012
01> -15491
00> -9991
01> -15431
00> -9983
01> -15414
00> -10007
01> -15470
00> -10031
01> -15511
00> -10000
01> -15472
00> -9979
01> -15431
00> -9987
01> -15416
00> -10019
01> -15446
00> -10016
01> -15466
00> -9989
01> -15445
00> -9961
01> -15409
00> -9977
01> -15422
00> -10009
01> -15468
00> -10035
01> -15483
00> -10027
01> -15475
00> -10008
01> -15434
00> -10021
01> -15450
00> -10046
01> -15517
00> -10051
01> -15562
00> -10066
01> -15532
00> -10048
01> -15476
00> -10042
01> -15461
00> -10054
01> -15490
00> -10058
01> -15539
00> -10078
01> -15505
00> -10052
01> -15464
00> -10049
01> -15462
00> -10059
01> -15510
00> -10073
01> -15546
00> -10081
01> -15506
00> -10052
01> -15456
00> -10044
01> -15455
00> -10109
01> -15522
00> -10127
01> -15558
00> -10101
01> -15521
00> -10056
01> -15453
00> -10037
01> -15462
00> -10081
01> -15543
00> -10116
01> -15562
00> -10103
01> -15511
00> -10083
01> -15460
00> -10059
01> -15460
00> -10099
01> -15512
00> -10119
01> -15569
00> -10114
01> -15555
00> -10075
01> -15481
00> -10097
01> -15465
00> -10104
01> -15517
00> -10096
01> -15557
00> -10089
01> -15526
00> -10089
01> -15481
00> -10111
01> -15446
00> -10124
01> -15538
00> -10097
01> -15566
00> -10076
01> -15502
00> -10081
01> -15464
00> -10082
01> -15490
00> -10108
01> -15547
00> -10127
01> -15578
00> -10117
01> -15560
00> -10118
01> -15490
00> -10078
01> -15464
00> -10094
01> -15504
00> -10105
01> -15536
00> -10089
01> -15526
00> -10090
01> -15459
00> -10112
01> -15455
00> -10084
01> -15496
00> -10087
01> -15544
00> -10077
01> -15535
00> -10060
01> -15479
00> -10062
01> -15468
00> -10104
01> -15528
00> -10174
01> -15534
00> -10115
01> -15471
00> -10087
01> -15468
00> -10079
01> -15427
00> -10088
01> -15453
00> -10104
01> -15471
00> -10051
01> -15486
00> -10027
01> -15435
00> -10057
01> -15441
00> -10101
01> -15462
00> -10098
01> -15492
00> -10066
01> -15482
00> -10067
01> -15433
00> -10027
01> -15404
00> -10048
01> -15476
00> -10107
01> -15522
00> -10107
01> -15539
00> -10075
01> -15462
00> -10064
01> -15447
00> -10072
01> -15449
00> -10072
01> -15427
00> -10060
01> -15414
00> -10028
01> -15384
00> -10023
01> -15369
00> -10047
01> -15432
00> -10069
01> -15464
00> -10058
01> -15412
00> -9997
01> -15350
00> -9978
01> -15356
00> -9984
01> -15392
00> -9998
01> -15399
00> -9971
01> -15335
00> -9946
01> -15281
00> -9940
01> -15289
00> -9973
01> -15347
00> -10024
01> -15362
00> -9987
01> -15324
00> -9937
01> -15282
00> -9906
01> -15237
00> -9910
01> -15251
00> -9941
01> -15326
00> -9926
01> -15298
00> -9892
01> -15235
00> -9887
01> -15196
00> -9928
01> -15250
00> -9939
01> -15306
00> -9902
01> -15283
00> -9881
01> -15194
00> -9886
01> -15169
00> -9879
01> -15231
00> -9867
01> -15230
00> -9887
01> -15238
00> -9857
01> -15206
00> -9869
01> -15209
00> -9921
01> -15261
00> -9917
01> -15242
00> -9886
01> -15211
00> -9853
01> -15130
00> -9857
01> -15172
00> -9909
01> -15232
00> -9902
01> -15221
00> -9897
01> -15247
00> -9892
01> -15183
00> -9873
01> -15129
00> -9874
01> -15197
00> -9914
01> -15266
00> -9923
01> -15241
00> -9929
01> -15198
00> -9881
01> -15144
00> -9891
01> -15161
00> -9927
01> -15226
00> -9888
01> -15179
00> -9864
01> -15122
00> -9834
01> -15098
00> -9901
01> -15162
00> -9874
01> -15184
00> -9920
01> -15130
00> -9901
01> -15118
00> -9865
01> -15133
00> -9890
01> -15205
00> -9843
01> -15216
00> -9847
01> -15196
00> -9873
01> -15164
00> -9874
01> -15166
00> -9946
01> -15223
00> -9969
01> -15195
00> -9910
01> -15088
00> -9845
01> -15124
00> -9855
01> -15134
00> -9836
01> -15176
00> -9857
01> -15197
00> -9881
01> -15201
00> -9884
01> -15166
00> -9892
01> -15117
00> -9874
01> -15138
00> -9845
01> -15167
00> -9834
01> -15106
00> -9777
01> -15105
00> -9837
01> -15095
00> -9869
01> -15151
00> -9881
01> -15172
00> -9892
01> -15169
00> -9851
01> -15091
00> -9806
01> -15060
00> -9782
01> -15104
00> -9805
01> -15104
00> -9827
01> -15132
00> -9834
01> -15082
00> -9804
01> -15062
00> -9831
01> -15090
00> -9824
01> -15111
00> -9816
01> -15091
00> -9837
01> -15048
00> -9848
01> -15094
00> -9831
01> -15157
00> -9860
01> -15169
00> -9865
01> -15121
00> -9810
01> -15066
00> -9790
01> -15045
00> -9794
01> -15069
00> -9799
01> -15089
00> -9807
01> -15077
00> -9816
01> -15056
00> -9795
01> -15059
00> -9824
01> -15090
00> -9852
01> -15123
00> -9826
01> -15102
00> -9817
01> -15064
00> -9809
01> -15052
00> -9819
01> -15066
00> -9831
01> -15111
00> -9798
01> -15094
00> -9787
01> -15049
00> -9776
01> -15034
00> -9816
01> -15084
00> -9854
01> -15122
00> -9829
01> -15097
00> -9806
01> -15047
00> -9796
01> -15012
00> -9795
01> -15028
00> -9797
01> -15094
00> -9814
01> -15088
00> -9804
01> -15043
00> -9796
01> -15034
00> -9789
01> -15069
00> -9801
01> -15097
00> -9779
01> -15046
00> -9747
01> -14988
00> -9758
01> -15005
00> -9814
01> -15083
00> -9843
01> -15119
00> -9841
01> -15089
00> -9812
01> -15049
00> -9799
01> -15048
00> -9801
01> -15080
00> -9807
01> -15094
00> -9807
01> -15062
00> -9810
01> -15017
00> -9800
01> -15021
00> -9824
01> -15081
00> -9838
01> -15137
00> -9835
01> -15116
00> -9817
01> -15043
00> -9815
01> -15009
00> -9867
01> -15105
00> -9884
01> -15159
00> -9888
01> -15147
00> -9860
01> -15122
00> -9859
01> -15082
00> -9876
01> -15101
00> -9904
01> -15176
00> -9899
01> -15163
00> -9877
01> -15126
00> -9888
01> -15116
00> -9895
01> -15134
00> -9921
01> -15149
00> -9926
01> -15181
00> -9915
01> -15161
00> -9889
01> -15137
00> -9917
01> -15174
00> -9967
01> -15170
00> -9946
01> -15176
00> -9923
01> -15126
00> -9895
01> -15116
00> -9916
01> -15138
00> -9961
01> -15182
00> -9972
01> -15186
00> -9941
01> -15155
00> -9917
01> -15131
00> -9939
01> -15158
00> -9977
01> -15224
00> -9975
01> -15212
00> -9926
01> -15144
00> -9932
01> -15142
00> -9978
01> -15165
00> -10014
01> -15185
00> -9998
01> -15212
00> -9958
01> -15187
00> -9941
01> -15177
00> -9961
01> -15203
00> -9975
01> -15219
00> -9966
01> -15212
00> -9971
01> -15174
00> -9989
01> -15150
00> -10009
01> -15195
00> -10014
01> -15231
00> -10014
01> -15264
00> -9982
01> -15230
00> -10000
01> -15217
00> -10014
01> -15233
00> -10019
01> -15257
00> -10044
01> -15272
00> -10026
01> -15243
00> -9997
01> -15221
00> -9999
01> -15246
00> -10017
01> -15270
00> -10027
01> -15263
00> -10012
01> -15235
00> -10007
01> -15184
00> -10008
01> -15207
00> -10027
01> -15273
00> -10039
01> -15267
00> -10022
01> -15217
00> -9994
01> -15164
00> -9994
01> -15193
00> -10026
01> -15254
00> -10026
01> -15261
00> -10005
01> -15236
00> -9994
01> -15174
00> -10006
01> -15155
00> -10022
01> -15202
00> -10022
01> -15242
00> -10022
01> -15244
00> -10021
01> -15229
00> -10018
01> -15239
00> -10037
01> -15274
00> -10056
01> -15277
00> -10034
01> -15209
00> -10014
01> -15168
00> -10007
01> -15183
00> -10016
01> -15234
00> -10034
01> -15239
00> -10037
01> -15205
00> -10027
01> -15192
00> -10008
01> -15195
00> -10002
01> -15219
00> -10022
01> -15200
00> -10016
01> -15179
00> -10007
01> -15174
00> -9998
01> -15191
00> -10018
01> -15217
00> -10014
01> -15213
00> -10004
01> -15184
00> -10000
01> -15191
00> -9999
01> -15209
00> -10017
01> -15209
00> -10039
01> -15207
00> -10004
01> -15177
00> -9970
01> -15161
00> -9991
01> -15171
00> -10039
01> -15196
00> -10011
01> -15211
00> -9966
01> -15167
00> -9980
01> -15146
00> -9998
01> -15155
00> -10003
01> -15181
00> -10031
01> -15181
00> -9987
01> -15157
00> -9951
01> -15131
00> -9983
01> -15138
00> -10026
01> -15216
00> -10051
01> -15232
00> -10022
01> -15179
00> -9966
01> -15132
00> -9972
01> -15142
00> -9987
01> -15171
00> -9994
01> -15156
00> -9977
01> -15123
00> -9967
01> -15124
00> -9986
01> -15140
00> -10004
01> -15189
00> -10022
01> -15176
00> -10001
01> -15142
00> -9966
01> -15152
00> -9984
01> -15167
00> -9993
01> -15171
00> -9996
01> -15163
00> -9976
01> -15132
00> -9967
01> -15114
00> -9966
01> -15129
00> -9982
01> -15177
00> -9979
01> -15171
00> -9964
01> -15117
00> -9980
01> -15096
00> -9991
01> -15121
00> -10010
01> -15151
00> -9975
01> -15164
00> -9947
01> -15131
00> -9963
01> -15084
00> -9957
01> -15104
00> -9964
01> -15137
00> -9999
01> -15134
00> -9976
01> -15111
00> -9927
01> -15065
00> -9947
01> -15081
00> -9980
01> -15146
00> -9983
01> -15148
00> -9965
01> -15132
00> -9959
01> -15108
00> -9966
01> -15119
00> -9998
01> -15133
00> -9996
01> -15116
00> -9967
01> -15084
00> -9954
01> -15046
00> -9966
01> -15093
00> -9973
01> -15142
00> -9989
01> -15143
00> -9974
01> -15109
00> -9961

00> -9979
01> -15096
00> -9976
01> -15118
00> -9966
01> -15122
00> -9961
01> -15090
00> -9958
01> -15066
00> -9966
01> -15096
00> -9986
01> -15125
00> -9986
01> -15131
00> -9965
01> -15111
00> -9945
01> -15106
00> -9971
01> -15116
00> -9994
01> -15130
00> -9991
01> -15132
00> -9978
01> -15089
00> -9945
01> -15054
00> -9944
01> -15069
00> -9944
01> -15100
00> -9965
01> -15120
00> -9954
01> -15109
00> -9958
01> -15096
00> -9973
01> -15090
00> -9986
01> -15116
00> -9996
01> -15114
00> -9971
01> -15088
00> -9951
01> -15049
00> -9980
01> -15087
00> -10002
01> -15128
00> -10007
01> -15156
00> -9989
01> -15129
00> -9978
01> -15084
00> -9977
01> -15081
00> -9993
01> -15122
00> -9993
01> -15140
00> -9986
01> -15105
00> -9959
01> -15071
00> -9967
01> -15072
00> -9996
01> -15118
00> -10007
01> -15144
00> -9988
01> -15110
00> -9972
01> -15052
00> -9952
01> -15044
00> -9965
01> -15066
00> -9965
01> -15074
00> -9954
01> -15060
00> -9948
01> -15044
00> -9954
01> -15056
00> -9956
01> -15074
00> -9974
01> -15102
00> -9977
01> -15089
00> -9967
01> -15067
00> -9975
01> -15062
00> -9992
01> -15098
00> -10011
01> -15120
00> -9991
01> -15114
00> -9946
01> -15064
00> -9920
01> -15031
00> -9955
01> -15073
00> -10007
01> -15124
00> -10010
01> -15107
00> -9991
01> -15085
00> -9994
01> -15092
00> -9986
01> -15100
00> -9984
01> -15090
00> -9971
01> -15064
00> -9948
01> -15022
00> -9948
01> -15019
00> -9968
01> -15058
00> -9986
01> -15064
00> -9968
01> -15046
00> -9942
01> -15014
00> -9946
01> -15031
00> -9966
01> -15066
00> -9964
01> -15072
00> -9954
01> -15034
00> -9932
01> -15004
00> -9937
01> -15012
00> -9954
01> -15036
00> -9959
01> -15045
00> -9943
01> -15011
00> -9920
01> -14973
00> -9915
01> -14967
00> -9934
01> -14982
00> -9936
01> -15011
00> -9922
01> -14985
00> -9892
01> -14944
00> -9893
01> -14949
00> -9914
01> -14977
00> -9919
01> -14974
00> -9907
01> -14945
00> -9885
01> -14922
00> -9872
01> -14906
00> -9876
01> -14917
00> -9897
01> -14947
00> -9894
01> -14927
00> -9901
01> -14893
00> -9888
01> -14911
00> -9895
01> -14950
00> -9891
01> -14951
00> -9879
01> -14932
00> -9887
01> -14914
00> -9881
01> -14913
00> -9894
01> -14936
00> -9912
01> -14951
00> -9904
01> -14931
00> -9884
01> -14908
00> -9904
01> -14932
00> -9930
01> -14968
00> -9929
01> -14978
00> -9916
01> -14941
00> -9898
01> -14908
00> -9897
01> -14912
00> -9907
01> -14945
00> -9916
01> -14966
00> -9903
01> -14946
00> -9883
01> -14923
00> -9879
01> -14931
00> -9890
01> -14936
00> -9899
01> -14937
00> -9896
01> -14924
00> -9861
01> -14889
00> -9851
01> -14893
00> -9864
01> -14926
00> -9874
01> -14929
00> -9864
01> -14906
00> -9844
01> -14887
00> -9844
01> -14902
00> -9866
01> -14949
00> -9866
01> -14945
00> -9846
01> -14908
00> -9851
01> -14862
00> -9837
01> -14850
00> -9847
01> -14880
00> -9855
01> -14895
00> -9850
01> -14874
00> -9839
01> -14851
00> -9834
01> -14853
00> -9848
01> -14892
00> -9862
01> -14927
00> -9847
01> -14905
00> -9826
01> -14850
00> -9814
01> -14827
00> -9841
01> -14831
00> -9846
01> -14871
00> -9841
01> -14854
00> -9822
01> -14848
00> -9815
01> -14859
00> -9837
01> -14882
00> -9845
01> -14882
00> -9822
01> -14860
00> -9804
01> -14808
00> -9797
01> -14806
00> -9812
01> -14852
00> -9824
01> -14876
00> -9811
01> -14854
00> -9794
01> -14790
00> -9809
01> -14796
00> -9821
01> -14834
00> -9822
01> -14848
00> -9798
01> -14833
00> -9786
01> -14802
00> -9776
01> -14779
00> -9790
01> -14809
00> -9797
01> -14834
00> -9790
01> -14804
00> -9769
01> -14768
00> -9763
01> -14777
00> -9784
01> -14828
00> -9787
01> -14845
00> -9783
01> -14804
00> -9771
01> -14771
00> -9788
01> -14774
00> -9803
01> -14821
00> -9791
01> -14854
00> -9780
01> -14825
00> -9767
01> -14779
00> -9764
01> -14768
00> -9779
01> -14799
00> -9787
01> -14827
00> -9780
01> -14807
00> -9769
01> -14776
00> -9776
01> -14773
00> -9789
01> -14800
00> -9800
01> -14819
00> -9774
01> -14784
00> -9776
01> -14761
00> -9779
01> -14758
00> -9787
01> -14801
00> -9794
01> -14824
00> -9786
01> -14799
00> -9771
01> -14766
00> -9761
01> -14747
00> -9762
01> -14767
00> -9796
01> -14812
00> -9799
01> -14812
00> -9780
01> -14779
00> -9781
01> -14777
00> -9799
01> -14801
00> -9812
01> -14818
00> -9799
01> -14801
00> -9773
01> -14769
00> -9762
01> -14763
00> -9774
01> -14791
00> -9794
01> -14823
00> -9789
01> -14809
00> -9766
01> -14767
00> -9758
01> -14757
00> -9776
01> -14772
00> -9791
01> -14799
00> -9782
01> -14786
00> -9765
01> -14753
00> -9761
01> -14750
00> -9784
01> -14779
00> -9814
01> -14804
00> -9800
01> -14802
00> -9779
01> -14777
00> -9774
01> -14783
00> -9797
01> -14814
00> -9801
01> -14828
00> -9782
01> -14799
00> -9779
01> -14752
00> -9767
01> -14722
00> -9772
01> -14759
00> -9789
01> -14784
00> -9786
01> -14766
00> -9753
01> -14739
00> -9755
01> -14737
00> -9777
01> -14767
00> -9782
01> -14792
00> -9777
01> -14769
00> -9753
01> -14724
00> -9746
01> -14730
00> -9772
01> -14760
00> -9793
01> -14777
00> -9798
01> -14749
00> -9757
01> -14726
00> -9751
01> -14715
00> -9769
01> -14768
00> -9789
01> -14799
00> -9801
01> -14781
00> -9792
01> -14742
00> -9786
01> -14732
00> -9776
01> -14762
00> -9797
01> -14783
00> -9786
01> -14764
00> -9757
01> -14707
00> -9741
01> -14702
00> -9760
01> -14746
00> -9775
01> -14766
00> -9766
01> -14764
00> -9764
01> -14734
00> -9752
01> -14707
00> -9747
01> -14730
00> -9771
01> -14759
00> -9779
01> -14756
00> -9754
01> -14731
00> -9759
01> -14726
00> -9769
01> -14731
00> -9776
01> -14773
00> -9780
01> -14766
00> -9772
01> -14711
00> -9747
01> -14692
00> -9732
01> -14724
00> -9755
01> -14732
00> -9766
01> -14741
00> -9765
01> -14724
00> -9759
01> -14717
00> -9767
01> -14732
00> -9771
01> -14764
00> -9753
01> -14753
00> -9749
01> -14708
00> -9752
01> -14704
00> -9754
01> -14731
00> -9759
01> -14757
00> -9762
01> -14744
00> -9750
01> -14699
00> -9751
01> -14671
00> -9746
01> -14716
00> -9763
01> -14757
00> -9762
01> -14751
00> -9739
01> -14715
00> -9735
01> -14710
00> -9754
01> -14741
00> -9774
01> -14762
00> -9769
01> -14743
00> -9747
01> -14701
00> -9750
01> -14677
00> -9745
01> -14724
00> -9766
01> -14749
00> -9767
01> -14732
00> -9746
01> -14706
00> -9735
01> -14688
00> -9747
01> -14715
00> -9772
01> -14752
00> -9773
01> -14737
00> -9762
01> -14701
00> -9761
01> -14703
00> -9765
01> -14732
00> -9766
01> -14737
00> -9766
01> -14714
00> -9744
01> -14673
00> -9734
01> -14678
00> -9761
01> -14722
00> -9779
01> -14749
00> -9774
01> -14724
00> -9752
01> -14704
00> -9746
01> -14701
00> -9757
01> -14727
00> -9767
01> -14749
00> -9767
01> -14734
00> -9754
01> -14702
00> -9744
01> -14674
00> -9752
01> -14698
00> -9775
01> -14738
00> -9776
01> -14718
00> -9752
01> -14676
00> -9739
01> -14669
00> -9759
01> -14712
00> -9776
01> -14754
00> -9777
01> -14724
00> -9744
01> -14682
00> -9738
01> -14661
00> -9753
01> -14662
00> -9757
01> -14697
00> -9771
01> -14701
00> -9749
01> -14666
00> -9727
01> -14654
00> -9737
01> -14676
00> -9749
01> -14710
00> -9751
01> -14706
00> -9744
01> -14661
00> -9731
01> -14642
00> -9741
01> -14673
00> -9749
01> -14710
00> -9749
01> -14710
00> -9748
01> -14686
00> -9727
01> -14670
00> -9744
01> -14680
00> -9775
01> -14707
00> -9783
01> -14697
00> -9758
01> -14640
00> -9723
01> -14647
00> -9737
01> -14684
00> -9762
01> -14726
00> -9760
01> -14710
00> -9718
01> -14641
00> -9717
01> -14611
00> -9736
01> -14656
00> -9753
01> -14686
00> -9758
01> -14689
00> -9747
01> -14660
00> -9722
01> -14629
00> -9741
01> -14656
00> -9768
01> -14696
00> -9758
01> -14685
00> -9721
01> -14661
00> -9741
01> -14649
00> -9730
01> -14664
00> -9744
01> -14696
00> -9759
01> -14691
00> -9734
01> -14672
00> -9731
01> -14640
00> -9751
01> -14657
00> -9758
01> -14688
00> -9759
01> -14684
00> -9736
01> -14647
00> -9716
01> -14632
00> -9725
01> -14663
00> -9750
01> -14696
00> -9755
01> -14682
00> -9727
01> -14639
00> -9712
01> -14629
00> -9727
01> -14647
00> -9741
01> -14672
00> -9741
01> -14666
00> -9722
01> -14636
00> -9716
01> -14623
00> -9727
01> -14646
00> -9751
01> -14682
00> -9746
01> -14675
00> -9719
01> -14632
00> -9711
01> -14601
00> -9734
01> -14617
00> -9736
01> -14647
00> -9727
01> -14637
00> -9718
01> -14609
00> -9697
01> -14594
00> -9710
01> -14607
00> -9719
01> -14631
00> -9729
01> -14655
00> -9737
01> -14619
00> -9717
01> -14612
00> -9711
01> -14612
00> -9712
01> -14622
00> -9717
01> -14617
00> -9701
01> -14589
00> -9697
01> -14576
00> -9706
01> -14607
00> -9736
01> -14639
00> -9733
01> -14637
00> -9714
01> -14586
00> -9680
01> -14557
00> -9687
01> -14571
00> -9716
01> -14607
00> -9731
01> -14632
00> -9714
01> -14615
00> -9705
01> -14584
00> -9712
01> -14599
00> -9732
01> -14631
00> -9722
01> -14618
00> -9684
01> -14582
00> -9673
01> -14567
00> -9694
01> -14582
00> -9712
01> -14618
00> -9712
01> -14624
00> -9700
01> -14586
00> -9697
01> -14557
00> -9704
01> -14581
00> -9714
01> -14613
00> -9722
01> -14632
00> -9714
01> -14615
00> -9696
01> -14578
00> -9696
01> -14591
00> -9721
01> -14619
00> -9711
01> -14612
00> -9702
01> -14586
00> -9701
01> -14564
00> -9707
01> -14572
00> -9719
01> -14619
00> -9721
01> -14630
00> -9709
01> -14595
00> -9697
01> -14568
00> -9697
01> -14573
00> -9722
01> -14611
00> -9725
01> -14625
00> -9706
01> -14605
00> -9701
01> -14572
00> -9717
01> -14576
00> -9721
01> -14614
00> -9722
01> -14619
00> -9709
01> -14584
00> -9692
01> -14556
00> -9700
01> -14583
00> -9722
01> -14607
00> -9723
01> -14608
00> -9711
01> -14564
00> -9689
01> -14544
00> -9706
01> -14574
00> -9737
01> -14605
00> -9717
01> -14587
00> -9700
01> -14548
00> -9686
01> -14539
00> -9696
01> -14566
00> -9714
01> -14606
00> -9720
01> -14593
00> -9702
01> -14557
00> -9699
01> -14544
00> -9709
01> -14574
00> -9709
01> -14585
00> -9704
01> -14574
00> -9692
01> -14536
00> -9686
01> -14505
00> -9687
01> -14528
00> -9701
01> -14575
00> -9714
01> -14586
00> -9696
01> -14554
00> -9690
01> -14530
00> -9688
01> -14543
00> -9702
01> -14565
00> -9706
01> -14557
00> -9694
01> -14536
00> -9687
01> -14530
00> -9688
01> -14541
00> -9702
01> -14566
00> -9716
01> -14585
00> -9703
01> -14555
00> -9691
01> -14514
00> -9691
01> -14519
00> -9699
01> -14541
00> -9698
01> -14547
00> -9681
01> -14526
00> -9666
01> -14501
00> -9687
01> -14507
00> -9709
01> -14542
00> -9714
01> -14562
00> -9691
01> -14526
00> -9687
01> -14501
00> -9679
01> -14527
00> -9689
01> -14562
00> -9701
01> -14550
00> -9683
01> -14501
00> -9669
01> -14458
00> -9676
01> -14460
00> -9699
01> -14509
00> -9686
01> -14531
00> -9678
01> -14497
00> -9668
01> -14470
00> -9674
01> -14485
00> -9696
01> -14524
00> -9696
01> -14533
00> -9692
01> -14512
00> -9692
01> -14485
00> -9690
01> -14487
00> -9691
01> -14509
00> -9701
01> -14520
00> -9687
01> -14497
00> -9671
01> -14462
00> -9669
01> -14472
00> -9679
01> -14505
00> -9690
01> -14518
00> -9698
01> -14507
00> -9689
01> -14486
00> -9693
01> -14494
00> -9711
01> -14534
00> -9706
01> -14536
00> -9697
01> -14487
00> -9677
01> -14457
00> -9687
01> -14477
00> -9709
01> -14518
00> -9739
01> -14542
00> -9704
01> -14528
00> -9693
01> -14492
00> -9693
01> -14493
00> -9706
01> -14527
00> -9717
01> -14539
00> -9703
01> -14507
00> -9677
01> -14472
00> -9686
01> -14471
00> -9721
01> -14519
00> -9729
01> -14536
00> -9701
01> -14509
00> -9684
01> -14481
00> -9684
01> -14489
00> -9687
01> -14504
00> -9703
01> -14494
00> -9681
01> -14477
00> -9674
01> -14449
00> -9687
01> -14463
00> -9700
01> -14495
00> -9699
01> -14491
00> -9681
01> -14442
00> -9661
01> -14426
00> -9670
01> -14456
00> -9695
01> -14509
00> -9716
01> -14523
00> -9693
01> -14464
00> -9666
01> -14422
00> -9681
01> -14442
00> -9696
01> -14478
00> -9706
01> -14499
00> -9681
01> -14482
00> -9674
01> -14452
00> -9687
01> -14453
00> -9699
01> -14486
00> -9702
01> -14490
00> -9687
01> -14447
00> -9666
01> -14424
00> -9668
01> -14437
00> -9700
01> -14477
00> -9708
01> -14502
00> -9695
01> -14476
00> -9670
01> -14429
00> -9666
01> -14421
00> -9681
01> -14446
00> -9706
01> -14462
00> -9699
01> -14448
00> -9682
01> -14430
00> -9686
01> -14425
00> -9706
01> -14452
00> -9709
01> -14465
00> -9684
01> -14426
00> -9660
01> -14381
00> -9675
01> -14404
00> -9694
01> -14454
00> -9704
01> -14473
00> -9700
01> -14444
00> -9685
01> -14417
00> -9688
01> -14416
00> -9683
01> -14439
00> -9692
01> -14451
00> -9687
01> -14426
00> -9665
01> -14397
00> -9660
01> -14394
00> -9684
01> -14436
00> -9688
01> -14465
00> -9675
01> -14442
00> -9671
01> -14402
00> -9670
01> -14411
00> -9684
01> -14439
00> -9696
01> -14456
00> -9683
01> -14424
00> -9661
01> -14387
00> -9657
01> -14387
00> -9677
01> -14422
00> -9696
01> -14442
00> -9687
01> -14414
00> -9665
01> -14395
00> -9659
01> -14383
00> -9673
01> -14406
00> -9683
01> -14424
00> -9671
01> -14402
00> -9660
01> -14374
00> -9657
01> -14359
00> -9661
01> -14386
00> -9676
01> -14416
00> -9678
01> -14404
00> -9662
01> -14372
00> -9664
01> -14375
00> -9681
01> -14400
00> -9697
01> -14426
00> -9684
01> -14406
00> -9662
01> -14375
00> -9664
01> -14382
00> -9677
01> -14397
00> -9669
01> -14401
00> -9652
01> -14386
00> -9646
01> -14357
00> -9654
01> -14354
00> -9669
01> -14388
00> -9682
01> -14402
00> -9675
01> -14378
00> -9656
01> -14357
00> -9655
01> -14359
00> -9677
01> -14382
00> -9680
01> -14414
00> -9671
01> -14396
00> -9659
01> -14362
00> -9652
01> -14367
00> -9673
01> -14392
00> -9686
01> -14404
00> -9676
01> -14381
00> -9651
01> -14335
00> -9656
01> -14342
00> -9679
01> -14382
00> -9691
01> -14407
00> -9679
01> -14386
00> -9660
01> -14355
00> -9666
01> -14359
00> -9679
01> -14396
00> -9692
01> -14405
00> -9662
01> -14359
00> -9640
01> -14305
00> -9658
01> -14337
00> -9682
01> -14387
00> -9688
01> -14411
00> -9680
01> -14401
00> -9667
01> -14359
00> -9664
01> -14338
00> -9673
01> -14365
00> -9675
01> -14371
00> -9661
01> -14336
00> -9651
01> -14306
00> -9652
01> -14311
00> -9669
01> -14352
00> -9677
01> -14384
00> -9665
01> -14366
00> -9653
01> -14317
00> -9649
01> -14301
00> -9669
01> -14342
00> -9684
01> -14364
00> -9664
01> -14339
00> -9641
01> -14309
00> -9637
01> -14301
00> -9657
01> -14353
00> -9660
01> -14372
00> -9652
01> -14351
00> -9643
01> -14320
00> -9636
01> -14307
00> -9646
01> -14331
00> -9652
01> -14347
00> -9648
01> -14318
00> -9635
01> -14291
00> -9637
01> -14304
00> -9652
01> -14346
00> -9669
01> -14364
00> -9653
01> -14341
00> -9632
01> -14306
00> -9636
01> -14307
00> -9655
01> -14333
00> -9667
01> -14356
00> -9662
01> -14345
00> -9639
01> -14301
00> -9641
01> -14306
00> -9662
01> -14336
00> -9663
01> -14336
00> -9652
01> -14312
00> -9644
01> -14293
00> -9632
01> -14299
00> -9655
01> -14333
00> -9671
01> -14359
00> -9659
01> -14336
00> -9634
01> -14301
00> -9645
01> -14307
00> -9670
01> -14333
00> -9678
01> -14346
00> -9672
01> -14332
00> -9654
01> -14301
00> -9644
01> -14273
00> -9657
01> -14302
00> -9679
01> -14348
00> -9672
01> -14338
00> -9644
01> -14296
00> -9639
01> -14274
00> -9653
01> -14307
00> -9660
01> -14325
00> -9647
01> -14311
00> -9630
01> -14279
00> -9628
01> -14277
00> -9650
01> -14316
00> -9674
01> -14344
00> -9666
01> -14318
00> -9653
01> -14283
00> -9651
01> -14277
00> -9656
01> -14302
00> -9671
01> -14327
00> -9659
01> -14311
00> -9641
01> -14279
00> -9641
01> -14274
00> -9659
01> -14320
00> -9679
01> -14331
00> -9666
01> -14311
00> -9645
01> -14285
00> -9643
01> -14276
00> -9664
01> -14298
00> -9682
01> -14319
00> -9660
01> -14288
00> -9629
01> -14251
00> -9636
01> -14259
00> -9651
01> -14301
00> -9672
01> -14334
00> -9661
01> -14308
00> -9641
01> -14261
00> -9643
01> -14261
00> -9660
01> -14293
00> -9670
01> -14324
00> -9664
01> -14305
00> -9658
01> -14267
00> -9652
01> -14263
00> -9666
01> -14284
00> -9676
01> -14296
00> -9666
01> -14286
00> -9652
01> -14249
00> -9644
01> -14245
00> -9653
01> -14282
00> -9661
01> -14299
00> -9645
01> -14272
00> -9622
01> -14234
00> -9631
01> -14241
00> -9657
01> -14271
00> -9683
01> -14295
00> -9664
01> -14274
00> -9639
01> -14226
00> -9631
01> -14198
00> -9634
01> -14250
00> -9651
01> -14290
00> -9644
01> -14267
00> -9632
01> -14240
00> -9640
01> -14226
00> -9657
01> -14258
00> -9667
01> -14278
00> -9656
01> -14264
00> -9643
01> -14232
00> -9649
01> -14236
00> -9654
01> -14278
00> -9669
01> -14286
00> -9659
01> -14266
00> -9649
01> -14247
00> -9644
01> -14231
00> -9657
01> -14256
00> -9672
01> -14303
00> -9665
01> -14290
00> -9647
01> -14229
00> -9635
01> -14210
00> -9656
01> -14270
00> -9663
01> -14294
00> -9669
01> -14262
00> -9656
01> -14221
00> -9654
01> -14212
00> -9667
01> -14226
00> -9680
01> -14282
00> -9656
01> -14275
00> -9638
01> -14224
00> -9602
01> -14192
00> -9639
01> -14216
00> -9648
01> -14228
00> -9643
01> -14221
00> -9642
01> -14186
00> -9642
01> -14174
00> -9637
01> -14224
00> -9660
01> -14251
00> -9657
01> -14254
00> -9634
01> -14209
00> -9621
01> -14187
00> -9631
01> -14217
00> -9656
01> -14250
00> -9667
01> -14236
00> -9649
01> -14212
00> -9630
01> -14216
00> -9636
01> -14234
00> -9665
01> -14249
00> -9677
01> -14241
00> -9641
01> -14203
00> -9621
01> -14204
00> -9629
01> -14217
00> -9645
01> -14220
00> -9651
01> -14207
00> -9647
01> -14162
00> -9625
01> -14153
00> -9637
01> -14201
00> -9664
01> -14217
00> -9655
01> -14193
00> -9637
01> -14162
00> -9625
01> -14155
00> -9639
01> -14196
00> -9662
01> -14237
00> -9668
01> -14226
00> -9646
01> -14184
00> -9628
01> -14159
00> -9648
01> -14177
00> -9664
01> -14224
00> -9657
01> -14204
00> -9651
01> -14153
00> -9632
01> -14146
00> -9631
01> -14187
00> -9641
01> -14230
00> -9634
01> -14201
00> -9619
01> -14164
00> -9610
01> -14145
00> -9627
01> -14161
00> -9652
01> -14208
00> -9647
01> -14212
00> -9632
01> -14187
00> -9637
01> -14149
00> -9631
01> -14157
00> -9644
01> -14177
00> -9631
01> -14172
00> -9608
01> -14121
00> -9603
01> -14126
00> -9628
01> -14184
00> -9646
01> -14222
00> -9659
01> -14201
00> -9628
01> -14158
00> -9614
01> -14134
00> -9644
01> -14161
00> -9651
01> -14196
00> -9657
01> -14188
00> -9631
01> -14152
00> -9618
01> -14134
00> -9643
01> -14166
00> -9661
01> -14204
00> -9658
01> -14198
00> -9644
01> -14161
00> -9631
01> -14144
00> -9633
01> -14166
00> -9657
01> -14189
00> -9656
01> -14193
00> -9639
01> -14156
00> -9631
01> -14133
00> -9635
01> -14154
00> -9652
01> -14187
00> -9651
01> -14179
00> -9627
01> -14141
00> -9610
01> -14122
00> -9627
01> -14159
00> -9647
01> -14206
00> -9650
01> -14208
00> -9632
01> -14167
00> -9624
01> -14143
00> -9634
01> -14154
00> -9628
01> -14164
00> -9625
01> -14159
00> -9619
01> -14127
00> -9619
01> -14116
00> -9627
01> -14127
00> -9642
01> -14157
00> -9646
01> -14167
00> -9632
01> -14134
00> -9621
01> -14102
00> -9624
01> -14119
00> -9632
01> -14145
00> -9637
01> -14156
00> -9625
01> -14131
00> -9616
01> -14110
00> -9626
01> -14127
00> -9648
01> -14155
00> -9646
01> -14150
00> -9633
01> -14119
00> -9619
01> -14104
00> -9637
01> -14136
00> -9656
01> -14173
00> -9656
01> -14182
00> -9637
01> -14147
00> -9618
01> -14106
00> -9626
01> -14117
00> -9636
01> -14147
00> -9634
01> -14141
00> -9624
01> -14117
00> -9612
01> -14096
00> -9617
01> -14109
00> -9630
01> -14137
00> -9635
01> -14141
00> -9616
01> -14104
00> -9605
01> -14072
00> -9612
01> -14087
00> -9626
01> -14115
00> -9626
01> -14116
00> -9610
01> -14088
00> -9599
01> -14072
00> -9607
01> -14087
00> -9628
01> -14124
00> -9629
01> -14127
00> -9614
01> -14089
00> -9598
01> -14055
00> -9598
01> -14062
00> -9610
01> -14090
00> -9619
01> -14095
00> -9612
01> -14074
00> -9608
01> -14064
00> -9612
01> -14088
00> -9631
01> -14122
00> -9634
01> -14111
00> -9621
01> -14074
00> -9612
01> -14051
00> -9619
01> -14076
00> -9637
01> -14102
00> -9638
01> -14098
00> -9621
01> -14055
00> -9604
01> -14036
00> -9607
01> -14061
00> -9625
01> -14097
00> -9634
01> -14102
00> -9620
01> -14062
00> -9600
01> -14032
00> -9606
01> -14049
00> -9624
01> -14084
00> -9621
01> -14082
00> -9603
01> -14055
00> -9590
01> -14022
00> -9596
01> -14039
00> -9619
01> -14082
00> -9622
01> -14091
00> -9599
01> -14049
00> -9587
01> -14015
00> -9583
01> -14027
00> -9592
01> -14059
00> -9594
01> -14061
00> -9594
01> -14037
00> -9582
01> -14010
00> -9591
01> -14025
00> -9600
01> -14051
00> -9606
01> -14051
00> -9589
01> -14024
00> -9571
01> -13998
00> -9579
01> -14009
00> -9601
01> -14047
00> -9611
01> -14050
00> -9588
01> -14016
00> -9576
01> -13996
00> -9587
01> -14010
00> -9604
01> -14038
00> -9609
01> -14039
00> -9599
01> -14008
00> -9581
01> -13994
00> -9587
01> -14011
00> -9610
01> -14057
00> -9627
01> -14069
00> -9611
01> -14034
00> -9598
01> -13988
00> -9601
01> -13984
00> -9604
01> -14021
00> -9612
01> -14026
00> -9596
01> -13996
00> -9577
01> -13962
00> -9587
01> -13983
00> -9612
01> -14025
00> -9614
01> -14031
00> -9599
01> -14007
00> -9590
01> -13979
00> -9595
01> -14000
00> -9626
01> -14050
00> -9625
01> -14057
00> -9597
01> -14019
00> -9577
01> -13982
00> -9587
01> -13998
00> -9596
01> -14043
00> -9603
01> -14042
00> -9590
01> -13998
00> -9582
01> -13957
00> -9591
01> -13972
00> -9595
01> -14028
00> -9609
01> -14054
00> -9612
01> -14021
00> -9590
01> -13989
00> -9586
01> -14001
00> -9609
01> -14030
00> -9616
01> -14029
00> -9591
01> -14002
00> -9582
01> -13971
00> -9584
01> -13989
00> -9595
01> -14023
00> -9612

00> -9611
01> -13988
00> -9597
01> -13958
00> -9609
01> -13979
00> -9635
01> -14014
00> -9641
01> -14029
00> -9614
01> -13994
00> -9594
01> -13958
00> -9604
01> -13969
00> -9612
01> -13997
00> -9609
01> -13999
00> -9611
01> -13968
00> -9592
01> -13951
00> -9595
01> -13964
00> -9612
01> -14004
00> -9614
01> -14013
00> -9606
01> -13977
00> -9586
01> -13950
00> -9592
01> -13962
00> -9593
01> -13987
00> -9601
01> -13988
00> -9591
01> -13957
00> -9569
01> -13932
00> -9580
01> -13953
00> -9607
01> -13994
00> -9607
01> -14010
00> -9591
01> -13977
00> -9574
01> -13953
00> -9589
01> -13966
00> -9607
01> -13992
00> -9614
01> -13980
00> -9587
01> -13949
00> -9571
01> -13926
00> -9577
01> -13931
00> -9601
01> -13972
00> -9600
01> -13987
00> -9596
01> -13962
00> -9575
01> -13932
00> -9569
01> -13929
00> -9599
01> -13967
00> -9622
01> -13986
00> -9602
01> -13961
00> -9568
01> -13924
00> -9567
01> -13922
00> -9599
01> -13950
00> -9599
01> -13959
00> -9586
01> -13941
00> -9581
01> -13914
00> -9591
01> -13918
00> -9610
01> -13953
00> -9613
01> -13963
00> -9593
01> -13931
00> -9574
01> -13904
00> -9579
01> -13928
00> -9596
01> -13954
00> -9611
01> -13947
00> -9604
01> -13943
00> -9589
01> -13914
00> -9585
01> -13922
00> -9603
01> -13957
00> -9596
01> -13967
00> -9586
01> -13927
00> -9584
01> -13887
00> -9592
01> -13896
00> -9607
01> -13935
00> -9606
01> -13937
00> -9584
01> -13914
00> -9575
01> -13891
00> -9589
01> -13906
00> -9601
01> -13930
00> -9603
01> -13936
00> -9589
01> -13912
00> -9564
01> -13881
00> -9579
01> -13882
00> -9606
01> -13915
00> -9597
01> -13940
00> -9593
01> -13911
00> -9582
01> -13884
00> -9589
01> -13893
00> -9596
01> -13934
00> -9596
01> -13936
00> -9585
01> -13908
00> -9577
01> -13879
00> -9576
01> -13883
00> -9601
01> -13919
00> -9616
01> -13939
00> -9610
01> -13926
00> -9587
01> -13892
00> -9578
01> -13894
00> -9597
01> -13931
00> -9609
01> -13948
00> -9584
01> -13912
00> -9559
01> -13879
00> -9577
01> -13876
00> -9597
01> -13896
00> -9605
01> -13933
00> -9588
01> -13919
00> -9565
01> -13901
00> -9572
01> -13921
00> -9586
01> -13942
00> -9600
01> -13937
00> -9590
01> -13906
00> -9594
01> -13869
00> -9590
01> -13862
00> -9581
01> -13903
00> -9591
01> -13911
00> -9586
01> -13883
00> -9569
01> -13861
00> -9576
01> -13879
00> -9581
01> -13918
00> -9601
01> -13917
00> -9596
01> -13890
00> -9572
01> -13861
00> -9572
01> -13859
00> -9592
01> -13887
00> -9599
01> -13911
00> -9589
01> -13886
00> -9582
01> -13858
00> -9565
01> -13858
00> -9583
01> -13891
00> -9586
01> -13907
00> -9594
01> -13890
00> -9580
01> -13841
00> -9586
01> -13833
00> -9588
01> -13874
00> -9576
01> -13906
00> -9584
01> -13887
00> -9588
01> -13851
00> -9576
01> -13866
00> -9585
01> -13922
00> -9607
01> -13932
00> -9587
01> -13873
00> -9570
01> -13832
00> -9563
01> -13829
00> -9571
01> -13865
00> -9584
01> -13888
00> -9579
01> -13871
00> -9578
01> -13828
00> -9574
01> -13841
00> -9577
01> -13891
00> -9592
01> -13904
00> -9591
01> -13880
00> -9567
01> -13843
00> -9569
01> -13833
00> -9587
01> -13870
00> -9602
01> -13872
00> -9580
01> -13852
00> -9570
01> -13822
00> -9556
01> -13822
00> -9568
01> -13842
00> -9604
01> -13867
00> -9573
01> -13851
00> -9553
01> -13811
00> -9567
01> -13820
00> -9576
01> -13851
00> -9589
01> -13857
00> -9577
01> -13856
00> -9571
01> -13824
00> -9556
01> -13827
00> -9567
01> -13851
00> -9591
01> -13865
00> -9576
01> -13839
00> -9553
01> -13806
00> -9549
01> -13821
00> -9576
01> -13855
00> -9595
01> -13884
00> -9575
01> -13857
00> -9559
01> -13799
00> -9552
01> -13804
00> -9573
01> -13842
00> -9586
01> -13868
00> -9571
01> -13838
00> -9546
01> -13796
00> -9555
01> -13787
00> -9575
01> -13812
00> -9579
01> -13845
00> -9561
01> -13822
00> -9544
01> -13771
00> -9554
01> -13779
00> -9567
01> -13827
00> -9583
01> -13851
00> -9586
01> -13829
00> -9563
01> -13792
00> -9550
01> -13792
00> -9570
01> -13836
00> -9589
01> -13876
00> -9588
01> -13854
00> -9564
01> -13814
00> -9549
01> -13794
00> -9556
01> -13812
00> -9573
01> -13826
00> -9571
01> -13811
00> -9544
01> -13781
00> -9539
01> -13778
00> -9554
01> -13821
00> -9574
01> -13844
00> -9569
01> -13831
00> -9557
01> -13800
00> -9562
01> -13789
00> -9561
01> -13806
00> -9562
01> -13827
00> -9559
01> -13805
00> -9539
01> -13777
00> -9522
01> -13769
00> -9544
01> -13791
00> -9564
01> -13817
00> -9558
01> -13803
00> -9547
01> -13774
00> -9548
01> -13754
00> -9555
01> -13783
00> -9575
01> -13814
00> -9569
01> -13812
00> -9554
01> -13787
00> -9549
01> -13767
00> -9549
01> -13791
00> -9574
01> -13824
00> -9568
01> -13813
00> -9541
01> -13777
00> -9536
01> -13754
00> -9546
01> -13779
00> -9561
01> -13796
00> -9550
01> -13769
00> -9536
01> -13728
00> -9551
01> -13719
00> -9561
01> -13766
00> -9557
01> -13797
00> -9561
01> -13784
00> -9545
01> -13750
00> -9534
01> -13736
00> -9548
01> -13761
00> -9564
01> -13794
00> -9556
01> -13779
00> -9540
01> -13746
00> -9529
01> -13736
00> -9545
01> -13766
00> -9561
01> -13791
00> -9546
01> -13760
00> -9524
01> -13721
00> -9524
01> -13722
00> -9546
01> -13759
00> -9559
01> -13781
00> -9546
01> -13759
00> -9534
01> -13731
00> -9522
01> -13716
00> -9537
01> -13744
00> -9561
01> -13789
00> -9557
01> -13762
00> -9534
01> -13726
00> -9528
01> -13736
00> -9547
01> -13769
00> -9556
01> -13791
00> -9549
01> -13766
00> -9527
01> -13724
00> -9534
01> -13718
00> -9553
01> -13752
00> -9561
01> -13781
00> -9556
01> -13771
00> -9536
01> -13737
00> -9532
01> -13729
00> -9536
01> -13744
00> -9537
01> -13744
00> -9537
01> -13727
00> -9536
01> -13697
00> -9532
01> -13684
00> -9540
01> -13721
00> -9559
01> -13770
00> -9556
01> -13761
00> -9537
01> -13725
00> -9523
01> -13711
00> -9527
01> -13729
00> -9551
01> -13757
00> -9552
01> -13751
00> -9527
01> -13703
00> -9522
01> -13694
00> -9539
01> -13727
00> -9556
01> -13752
00> -9551
01> -13738
00> -9536
01> -13712
00> -9522
01> -13690
00> -9527
01> -13701
00> -9551
01> -13742
00> -9552
01> -13736
00> -9532
01> -13696
00> -9528
01> -13686
00> -9531
01> -13716
00> -9537
01> -13723
00> -9534
01> -13689
00> -9516
01> -13654
00> -9511
01> -13650
00> -9526
01> -13690
00> -9547
01> -13726
00> -9541
01> -13712
00> -9516
01> -13669
00> -9506
01> -13656
00> -9512
01> -13675
00> -9528
01> -13714
00> -9529
01> -13704
00> -9519
01> -13672
00> -9522
01> -13662
00> -9534
01> -13686
00> -9540
01> -13707
00> -9539
01> -13692
00> -9526
01> -13652
00> -9516
01> -13629
00> -9531
01> -13652
00> -9536
01> -13676
00> -9524
01> -13660
00> -9509
01> -13619
00> -9508
01> -13622
00> -9527
01> -13662
00> -9539
01> -13692
00> -9528
01> -13681
00> -9517
01> -13642
00> -9507
01> -13618
00> -9514
01> -13641
00> -9531
01> -13684
00> -9529
01> -13684
00> -9522
01> -13649
00> -9511
01> -13622
00> -9526
01> -13631
00> -9536
01> -13679
00> -9535
01> -13684
00> -9507
01> -13648
00> -9488
01> -13623
00> -9504
01> -13644
00> -9527
01> -13672
00> -9536
01> -13670
00> -9526
01> -13641
00> -9514
01> -13621
00> -9519
01> -13640
00> -9530
01> -13657
00> -9522
01> -13654
00> -9507
01> -13614
00> -9498
01> -13597
00> -9501
01> -13615
00> -9526
01> -13652
00> -9531
01> -13669
00> -9519
01> -13641
00> -9507
01> -13627
00> -9524
01> -13644
00> -9536
01> -13659
00> -9523
01> -13643
00> -9495
01> -13593
00> -9485
01> -13579
00> -9499
01> -13602
00> -9518
01> -13641
00> -9532
01> -13646
00> -9523
01> -13616
00> -9502
01> -13609
00> -9499
01> -13644
00> -9524
01> -13664
00> -9521
01> -13644
00> -9507
01> -13594
00> -9494
01> -13581
00> -9499
01> -13597
00> -9516
01> -13626
00> -9522
01> -13641
00> -9507
01> -13609
00> -9497
01> -13588
00> -9516
01> -13606
00> -9534
01> -13634
00> -9528
01> -13632
00> -9502
01> -13598
00> -9502
01> -13574
00> -9511
01> -13599
00> -9514
01> -13619
00> -9512
01> -13601
00> -9489
01> -13582
00> -9497
01> -13562
00> -9517
01> -13584
00> -9523
01> -13611
00> -9501
01> -13602
00> -9499
01> -13574
00> -9480
01> -13562
00> -9488
01> -13592
00> -9516
01> -13617
00> -9515
01> -13614
00> -9494
01> -13570
00> -9484
01> -13528
00> -9492
01> -13550
00> -9500
01> -13602
00> -9502
01> -13599
00> -9487
01> -13569
00> -9476
01> -13554
00> -9503
01> -13562
00> -9514
01> -13594
00> -9514
01> -13611
00> -9501
01> -13576
00> -9492
01> -13552
00> -9501
01> -13571
00> -9516
01> -13613
00> -9516
01> -13606
00> -9491
01> -13547
00> -9472
01> -13532
00> -9506
01> -13547
00> -9507
01> -13589
00> -9498
01> -13574
00> -9490
01> -13531
00> -9481
01> -13501
00> -9493
01> -13536
00> -9505
01> -13577
00> -9501
01> -13579
00> -9481
01> -13548
00> -9483
01> -13516
00> -9491
01> -13540
00> -9491
01> -13565
00> -9503
01> -13570
00> -9488
01> -13529
00> -9471
01> -13501
00> -9484
01> -13510
00> -9494
01> -13547
00> -9491
01> -13559
00> -9475
01> -13524
00> -9469
01> -13509
00> -9492
01> -13524
00> -9497
01> -13553
00> -9481
01> -13538
00> -9471
01> -13495
00> -9456
01> -13475
00> -9475
01> -13524
00> -9497
01> -13537
00> -9494
01> -13550
00> -9471
01> -13528
00> -9463
01> -13506
00> -9475
01> -13526
00> -9506
01> -13543
00> -9505
01> -13533
00> -9481
01> -13501
00> -9454
01> -13482
00> -9469
01> -13502
00> -9484
01> -13537
00> -9495
01> -13537
00> -9494
01> -13517
00> -9479
01> -13496
00> -9483
01> -13507
00> -9501
01> -13527
00> -9492
01> -13539
00> -9463
01> -13511
00> -9462
01> -13474
00> -9481
01> -13494
00> -9486
01> -13538
00> -9498
01> -13541
00> -9484
01> -13508
00> -9472
01> -13482
00> -9469
01> -13502
00> -9494
01> -13541
00> -9501
01> -13539
00> -9492
01> -13511
00> -9466
01> -13473
00> -9477
01> -13499
00> -9512
01> -13537
00> -9504
01> -13547
00> -9484
01> -13519
00> -9471
01> -13502
00> -9478
01> -13524
00> -9499
01> -13555
00> -9511
01> -13546
00> -9497
01> -13496
00> -9470
01> -13475
00> -9475
01> -13477
00> -9488
01> -13512
00> -9501
01> -13503
00> -9482
01> -13476
00> -9471
01> -13454
00> -9477
01> -13476
00> -9491
01> -13510
00> -9495
01> -13512
00> -9478
01> -13478
00> -9464
01> -13457
00> -9472
01> -13481
00> -9491
01> -13516
00> -9506
01> -13539
00> -9489
01> -13495
00> -9477
01> -13450
00> -9471
01> -13464
00> -9488
01> -13502
00> -9502
01> -13496
00> -9491
01> -13470
00> -9462
01> -13458
00> -9474
01> -13466
00> -9491
01> -13506
00> -9497
01> -13507
00> -9482
01> -13467
00> -9474
01> -13438
00> -9478
01> -13445
00> -9501
01> -13498
00> -9501
01> -13500
00> -9472
01> -13465
00> -9449
01> -13437
00> -9462
01> -13450
00> -9479
01> -13480
00> -9484
01> -13494
00> -9474
01> -13453
00> -9465
01> -13434
00> -9463
01> -13454
00> -9474
01> -13487
00> -9478
01> -13496
00> -9475
01> -13471
00> -9461
01> -13446
00> -9464
01> -13460
00> -9471
01> -13493
00> -9479
01> -13482
00> -9473
01> -13450
00> -9460
01> -13435
00> -9464
01> -13458
00> -9482
01> -13486
00> -9487
01> -13485
00> -9474
01> -13451
00> -9451
01> -13419
00> -9451
01> -13442
00> -9476
01> -13477
00> -9491
01> -13468
00> -9476
01> -13454
00> -9454
01> -13446
00> -9461
01> -13456
00> -9486
01> -13474
00> -9496
01> -13490
00> -9475
01> -13455
00> -9454
01> -13424
00> -9469
01> -13440
00> -9489
01> -13493
00> -9486
01> -13492
00> -9464
01> -13462
00> -9444
01> -13436
00> -9462
01> -13451
00> -9473
01> -13479
00> -9471
01> -13477
00> -9455
01> -13443
00> -9456
01> -13416
00> -9460
01> -13424
00> -9477
01> -13466
00> -9481
01> -13469
00> -9464
01> -13429
00> -9445
01> -13398
00> -9460
01> -13419
00> -9472
01> -13459
00> -9474
01> -13466
00> -9465
01> -13435
00> -9449
01> -13405
00> -9453
01> -13421
00> -9475
01> -13459
00> -9486
01> -13463
00> -9472
01> -13426
00> -9455
01> -13389
00> -9446
01> -13409
00> -9472
01> -13447
00> -9488
01> -13471
00> -9474
01> -13437
00> -9449
01> -13388
00> -9451
01> -13386
00> -9473
01> -13420
00> -9472
01> -13442
00> -9456
01> -13418
00> -9437
01> -13374
00> -9431
01> -13374
00> -9467
01> -13419
00> -9474
01> -13421
00> -9452
01> -13402
00> -9433
01> -13371
00> -9434
01> -13382
00> -9456
01> -13416
00> -9458
01> -13416
00> -9437
01> -13381
00> -9420
01> -13342
00> -9426
01> -13349
00> -9453
01> -13407
00> -9471
01> -13428
00> -9459
01> -13405
00> -9447
01> -13375
00> -9444
01> -13372
00> -9449
01> -13390
00> -9466
01> -13407
00> -9448
01> -13380
00> -9429
01> -13354
00> -9435
01> -13366
00> -9459
01> -13407
00> -9459
01> -13422
00> -9447
01> -13383
00> -9442
01> -13356
00> -9429
01> -13359
00> -9444
01> -13382
00> -9458
01> -13387
00> -9439
01> -13376
00> -9431
01> -13358
00> -9434
01> -13367
00> -9448
01> -13406
00> -9457
01> -13419
00> -9432
01> -13371
00> -9422
01> -13332
00> -9434
01> -13339
00> -9454
01> -13374
00> -9459
01> -13382
00> -9436
01> -13356
00> -9430
01> -13331
00> -9434
01> -13334
00> -9444
01> -13362
00> -9446
01> -13376
00> -9448
01> -13367
00> -9442
01> -13334
00> -9435
01> -13339
00> -9442
01> -13361
00> -9445
01> -13372
00> -9431
01> -13356
00> -9422
01> -13334
00> -9437
01> -13345
00> -9455
01> -13384
00> -9457
01> -13392
00> -9430
01> -13337
00> -9416
01> -13303
00> -9422
01> -13324
00> -9437
01> -13374
00> -9449
01> -13393
00> -9446
01> -13364
00> -9429
01> -13324
00> -9422
01> -13318
00> -9446
01> -13360
00> -9459
01> -13377
00> -9444
01> -13352
00> -9417
01> -13324
00> -9417
01> -13332
00> -9437
01> -13364
00> -9442
01> -13378
00> -9437
01> -13344
00> -9421
01> -13301
00> -9418
01> -13296
00> -9420
01> -13331
00> -9435
01> -13350
00> -9427
01> -13323
00> -9407
01> -13293
00> -9422
01> -13290
00> -9438
01> -13317
00> -9443
01> -13347
00> -9431
01> -13327
00> -9407
01> -13288
00> -9413
01> -13284
00> -9428
01> -13322
00> -9447
01> -13351
00> -9449
01> -13341
00> -9425
01> -13299
00> -9416
01> -13287
00> -9433
01> -13316
00> -9446
01> -13332
00> -9430
01> -13312
00> -9416
01> -13291
00> -9420
01> -13296
00> -9439
01> -13335
00> -9442
01> -13349
00> -9439
01> -13320
00> -9422
01> -13280
00> -9414
01> -13283
00> -9429
01> -13316
00> -9436
01> -13332
00> -9425
01> -13299
00> -9407
01> -13260
00> -9410
01> -13269
00> -9427
01> -13295
00> -9441
01> -13309
00> -9438
01> -13293
00> -9422
01> -13262
00> -9418
01> -13276
00> -9433
01> -13309
00> -9432
01> -13322
00> -9426
01> -13301
00> -9410
01> -13252
00> -9417
01> -13249
00> -9432
01> -13294
00> -9437
01> -13316
00> -9432
01> -13305
00> -9421
01> -13275
00> -9426
01> -13269
00> -9442
01> -13293
00> -9444
01> -13309
00> -9438
01> -13283
00> -9411
01> -13246
00> -9411
01> -13247
00> -9428
01> -13279
00> -9441
01> -13302
00> -9436
01> -13277
00> -9426
01> -13240
00> -9423
01> -13249
00> -9434
01> -13282
00> -9441
01> -13306
00> -9438
01> -13276
00> -9422
01> -13238
00> -9428
01> -13241
00> -9440
01> -13281
00> -9442
01> -13309
00> -9432
01> -13284
00> -9423
01> -13249
00> -9422
01> -13249
00> -9439
01> -13278
00> -9435
01> -13289
00> -9439
01> -13271
00> -9424
01> -13238
00> -9406
01> -13236
00> -9432
01> -13280
00> -9454
01> -13302
00> -9449
01> -13284
00> -9437
01> -13237
00> -9425
01> -13230
00> -9439
01> -13274
00> -9452
01> -13306
00> -9447
01> -13288
00> -9440
01> -13256
00> -9431
01> -13251
00> -9435
01> -13266
00> -9429
01> -13281
00> -9416
01> -13258
00> -9413
01> -13222
00> -9419
01> -13219
00> -9433
01> -13261
00> -9450
01> -13288
00> -9445
01> -13270
00> -9419
01> -13227
00> -9401
01> -13210
00> -9431
01> -13238
00> -9447
01> -13279
00> -9421
01> -13254
00> -9392
01> -13208
00> -9407
01> -13210
00> -9434
01> -13252
00> -9454
01> -13284
00> -9441
01> -13263
00> -9418
01> -13214
00> -9403
01> -13207
00> -9417
01> -13229
00> -9434
01> -13257
00> -9419
01> -13239
00> -9405
01> -13198
00> -9409
01> -13205
00> -9427
01> -13239
00> -9421
01> -13254
00> -9411
01> -13247
00> -9412
01> -13212
00> -9409
01> -13202
00> -9416
01> -13236
00> -9426
01> -13263
00> -9407
01> -13236
00> -9395
01> -13194
00> -9393
01> -13196
00> -9404
01> -13218
00> -9415
01> -13238
00> -9415
01> -13232
00> -9409
01> -13204
00> -9414
01> -13198
00> -9416
01> -13214
00> -9415
01> -13223
00> -9411
01> -13206
00> -9395
01> -13167
00> -9394
01> -13163
00> -9421
01> -13204
00> -9429
01> -13232
00> -9430
01> -13221
00> -9402
01> -13172
00> -9382
01> -13148
00> -9401
01> -13182
00> -9425
01> -13214
00> -9429
01> -13204
00> -9402
01> -13161
00> -9387
01> -13144
00> -9400
01> -13176
00> -9421
01> -13204
00> -9424
01> -13197
00> -9402
01> -13168
00> -9395
01> -13158
00> -9413
01> -13184
00> -9422
01> -13207
00> -9414
01> -13195
00> -9396
01> -13151
00> -9395
01> -13134
00> -9399
01> -13158
00> -9411
01> -13183
00> -9417
01> -13173
00> -9406
01> -13136
00> -9386
01> -13126
00> -9404
01> -13167
00> -9432
01> -13204
00> -9408
01> -13184
00> -9388
01> -13144
00> -9382
01> -13121
00> -9407
01> -13156
00> -9436
01> -13194
00> -9426
01> -13173
00> -9399
01> -13134
00> -9399
01> -13129
00> -9410
01> -13154
00> -9412
01> -13172
00> -9402
01> -13149
00> -9395
01> -13130
00> -9392
01> -13117
00> -9391
01> -13127
00> -9398
01> -13159
00> -9406
01> -13159
00> -9392
01> -13124
00> -9391
01> -13109
00> -9396
01> -13133
00> -9404
01> -13162
00> -9401
01> -13158
00> -9400
01> -13134
00> -9385
01> -13119
00> -9389
01> -13141
00> -9417
01> -13165
00> -9420
01> -13161
00> -9404
01> -13137
00> -9394
01> -13119
00> -9388
01> -13136
00> -9409
01> -13164
00> -9415
01> -13159
00> -9394
01> -13119
00> -9366
01> -13090
00> -9395
01> -13124
00> -9429
01> -13172
00> -9421
01> -13152
00> -9388
01> -13113
00> -9385
01> -13097
00> -9402
01> -13128
00> -9404
01> -13144
00> -9399
01> -13136
00> -9378
01> -13101
00> -9371
01> -13093
00> -9399
01> -13126
00> -9428
01> -13163
00> -9416
01> -13142
00> -9379
01> -13098
00> -9387
01> -13097
00> -9397
01> -13116
00> -9414
01> -13144
00> -9411
01> -13142
00> -9394
01> -13109
00> -9382
01> -13097
00> -9400
01> -13116
00> -9420
01> -13143
00> -9403
01> -13128
00> -9389
01> -13094
00> -9390
01> -13089
00> -9396
01> -13117
00> -9419
01> -13158
00> -9424
01> -13146
00> -9399
01> -13096
00> -9391
01> -13081
00> -9401
01> -13105
00> -9432
01> -13143
00> -9432
01> -13134
00> -9393
01> -13084
00> -9358
01> -13046
00> -9376
01> -13077
00> -9420
01> -13129
00> -9432
01> -13129
00> -9417
01> -13099
00> -9401
01> -13082
00> -9400
01> -13101
00> -9417
01> -13130
00> -9408
01> -13111
00> -9379
01> -13051
00> -9369
01> -13042
00> -9381
01> -13066
00> -9404
01> -13107
00> -9434
01> -13114
00> -9431
01> -13071
00> -9402
01> -13049
00> -9397
01> -13077
00> -9414
01> -13109
00> -9414
01> -13092
00> -9369
01> -13053
00> -9360
01> -13034
00> -9389
01> -13064
00> -9402
01> -13089
00> -9385
01> -13076
00> -9370
01> -13044
00> -9370
01> -13037
00> -9391
01> -13068
00> -9419
01> -13104
00> -9418
01> -13097
00> -9389
01> -13053
00> -9374
01> -13035
00> -9391
01> -13062
00> -9410
01> -13094
00> -9401
01> -13089
00> -9379
01> -13041
00> -9376
01> -13026
00> -9391
01> -13057
00> -9390
01> -13069
00> -9380
01> -13064
00> -9361
01> -13034
00> -9361
01> -13021
00> -9378
01> -13052
00> -9389
01> -13074
00> -9405
01> -13077
00> -9383
01> -13057
00> -9369
01> -13029
00> -9369
01> -13037
00> -9377
01> -13066
00> -9377
01> -13059
00> -9364
01> -13031
00> -9349
01> -13002
00> -9368
01> -13022
00> -9408
01> -13079
00> -9404
01> -13080
00> -9375
01> -13036
00> -9363
01> -13017
00> -9375
01> -13050
00> -9399
01> -13081
00> -9391
01> -13059
00> -9357
01> -13014
00> -9342
01> -12984
00> -9369
01> -13012
00> -9386
01> -13047
00> -9391
01> -13046
00> -9389
01> -13016
00> -9360
01> -12995
00> -9369
01> -13017
00> -9402
01> -13054
00> -9404
01> -13049
00> -9389
01> -13016
00> -9367
01> -12990
00> -9355
01> -12992
00> -9371
01> -13042
00> -9392
01> -13050
00> -9376
01> -13004
00> -9367
01> -12979
00> -9377
01> -13015
00> -9395
01> -13065
00> -9392
01> -13054
00> -9370
01> -13007
00> -9353
01> -12992
00> -9352
01> -13007
00> -9373
01> -13039
00> -9395
01> -13032
00> -9374
01> -13002
00> -9351
01> -12969
00> -9369
01> -12992
00> -9394
01> -13039
00> -9392
01> -13053
00> -9381
01> -13039
00> -9379
01> -13016
00> -9386
01> -13009
00> -9381
01> -13033
00> -9372
01> -13036
00> -9372
01> -13000
00> -9366
01> -12969
00> -9367
01> -12984
00> -9389
01> -13032
00> -9389
01> -13032
00> -9385
01> -12991
00> -9367
01> -12996
00> -9399
01> -13029
00> -9413
01> -13049
00> -9397
01> -13029
00> -9374
01> -12973
00> -9354
01> -12969
00> -9372
01> -12997
00> -9401
01> -13042
00> -9425
01> -13056
00> -9416
01> -13006
00> -9372
01> -12965
00> -9369
01> -12987
00> -9368
01> -13026
00> -9393
01> -13011
00> -9389
01> -12989
00> -9381
01> -12981
00> -9379
01> -13000
00> -9397
01> -13026
00> -9406
01> -13017
00> -9383
01> -12980
00> -9375
01> -12964
00> -9392
01> -12989
00> -9407
01> -13026
00> -9394
01> -13044
00> -9389
01> -13022
00> -9386
01> -12980
00> -9374
01> -12978
00> -9388
01> -13010
00> -9403
01> -13012
00> -9372
01> -12980
00> -9361
01> -12968
00> -9388
01> -13011
00> -9393
01> -13035
00> -9418
01> -13028
00> -9392
01> -12997
00> -9369
01> -12969
00> -9365
01> -12992
00> -9417
01> -13040
00> -9428
01> -13048
00> -9398
01> -13014
00> -9379
01> -12984
00> -9376
01> -12991
00> -9392
01> -13021
00> -9413
01> -13025
00> -9400
01> -12990
00> -9369
01> -12964
00> -9364
01> -12976
00> -9391
01> -13023
00> -9422
01> -13027
00> -9399
01> -12996
00> -9382
01> -12978
00> -9391
01> -12987
00> -9405
01> -13025
00> -9412
01> -13011
00> -9389
01> -12956
00> -9382
01> -12945
00> -9396
01> -12981
00> -9409
01> -13016
00> -9404
01> -13017
00> -9386
01> -12972
00> -9385
01> -12974
00> -9407
01> -12989
00> -9419
01> -13009
00> -9416
01> -13012
00> -9409
01> -12969
00> -9394
01> -12948
00> -9396
01> -12959
00> -9392
01> -12978
00> -9389
01> -12986
00> -9385
01> -12951
00> -9391
01> -12946
00> -9397
01> -12977
00> -9411
01> -13017
00> -9431
01> -13018
00> -9408
01> -12975
00> -9391
01> -12944
00> -9383
01> -12951
00> -9392
01> -12974
00> -9395
01> -12979
00> -9394
01> -12959
00> -9376
01> -12939
00> -9392
01> -12957
00> -9402
01> -12977
00> -9417
01> -12992
00> -9407
01> -12980
00> -9381
01> -12947
00> -9396
01> -12942
00> -9406
01> -12975
00> -9420
01> -12987
00> -9428
01> -12961
00> -9399
01> -12951
00> -9395
01> -12970
00> -9408
01> -12982
00> -9417
01> -12971
00> -9386
01> -12930
00> -9358
01> -12904
00> -9381
01> -12912
00> -9404
01> -12946
00> -9414
01> -12971
00> -9402
01> -12948
00> -9400
01> -12923
00> -9384
01> -12942
00> -9399
01> -12965
00> -9408
01> -12961
00> -9402
01> -12926
00> -9390
01> -12907
00> -9389
01> -12919
00> -9411
01> -12934
00> -9417
01> -12971
00> -9403
01> -12961
00> -9380
01> -12936
00> -9377
01> -12945
00> -9406
01> -12966
00> -9412
01> -12977
00> -9389
01> -12941
00> -9372
01> -12904
00> -9409
01> -12912
00> -9434
01> -12947
00> -9431
01> -12966
00> -9416
01> -12934
00> -9404
01> -12896
00> -9383
01> -12924
00> -9402
01> -12966
00> -9424
01> -12970
00> -9412
01> -12941
00> -9394
01> -12906
00> -9402
01> -12931
00> -9417
01> -12966
00> -9411
01> -12967
00> -9411
01> -12932
00> -9399
01> -12904
00> -9386
01> -12891
00> -9399
01> -12924
00> -9424
01> -12937
00> -9423
01> -12933
00> -9399
01> -12911
00> -9404
01> -12895
00> -9410
01> -12932
00> -9409
01> -12945
00> -9419
01> -12902
00> -9395
01> -12879
00> -9401
01> -12907
00> -9402
01> -12944
00> -9414
01> -12949
00> -9400
01> -12913
00> -9382
01> -12872
00> -9378
01> -12859
00> -9396
01> -12920
00> -9408
01> -12940
00> -9406
01> -12901
00> -9399
01> -12870
00> -9403
01> -12881
00> -9426
01> -12910
00> -9439
01> -12956
00> -9397
01> -12921
00> -9380
01> -12894
00> -9394
01> -12901
00> -9420
01> -12907
00> -9443
01> -12916
00> -9447
01> -12895
00> -9421
01> -12866
00> -9383
01> -12887
00> -9397
01> -12921
00> -9426
01> -12922
00> -9410
01> -12912
00> -9404
01> -12862
00> -9397
01> -12846
00> -9385
01> -12891
00> -9430
01> -12900
00> -9429
01> -12873
00> -9377
01> -12861
00> -9375
01> -12843
00> -9401
01> -12872
00> -9421
01> -12897
00> -9431
01> -12897
00> -9381
01> -12861
00> -9387
01> -12852
00> -9404
01> -12903
00> -9431
01> -12909
00> -9412
01> -12864
00> -9384
01> -12858
00> -9385
01> -12864
00> -9410
01> -12835
00> -9416
01> -12885
00> -9396
01> -12874
00> -9405
01> -12802
00> -9402
01> -12834
00> -9444
01> -12873
00> -9457
01> -12798
00> -9415
01> -12871
00> -9396
01> -12814
00> -9406
01> -12867
00> -9432
01> -12894
00> -9497
01> -12902
00> -9373
01> -12848
00> -9375
01> -12767
00> -9399
01> -12776
00> -9382
01> -12873
00> -9401
01> -12873
00> -9409
01> -12839
00> -9374
01> -12777
00> -9357
01> -12736
00> -9444
01> -12837
00> -9444
01> -12868
00> -9377
01> -12827
00> -9392
01> -12798
00> -9419
01> -12884
00> -9396
01> -12874
00> -9462
01> -12814
00> -9437
01> -12850
00> -9416
01> -12829
00> -9387
01> -12779
00> -9419
01> -12817
00> -9481
01> -12851
00> -9447
01> -12821
00> -9397
01> -12827
00> -9361
01> -12802
00> -9382
01> -12820
00> -9398
01> -12847
00> -9382
01> -12854
00> -9447
01> -12821
00> -9404
01> -12833
00> -9404
01> -12832
00> -9429
01> -12837
00> -9383
01> -12835
00> -9360
01> -12789
00> -9391
01> -12742
00> -9405
01> -12791
00> -9424
01> -12796
00> -9408
01> -12779
00> -9336
01> -12777
00> -9362
01> -12761
00> -9381
01> -12794
00> -9437
01> -12818
00> -9404
01> -12824
00> -9372
01> -12789
00> -9392
01> -12807
00> -9439
01> -12832
00> -9404
01> -12831
00> -9380
01> -12803
00> -9393
01> -12749
00> -9397
01> -12765
00> -9424
01> -12851
00> -9419
01> -12827
00> -9392
01> -12756
00> -9395
01> -12770
00> -9381
01> -12750
00> -9411
01> -12782
00> -9401
01> -12854
00> -9392
01> -12798
00> -9402
01> -12749
00> -9377
01> -12741
00> -9382
01> -12785
00> -9422
01> -12809
00> -9436
01> -12826
00> -9404
01> -12754
00> -9377
01> -12713
00> -9430
01> -12794
00> -9407
01> -12816
00> -9367
01> -12761
00> -9389
01> -12728
00> -9417
01> -12739
00> -9379
01> -12763
00> -9392
01> -12785
00> -9426
01> -12798
00> -9370
01> -12723
00> -9369
01> -12757
00> -9384
01> -12790
00> -9433
01> -12834
00> -9394
01> -12740
00> -9382
01> -12711
00> -9339
01> -12747
00> -9392
01> -12773
00> -9424
01> -12822
00> -9416
01> -12772
00> -9391
01> -12699
00> -9379
01> -12708
00> -9481
01> -12776
00> -9420
01> -12799
00> -9477
01> -12757
00> -9446
01> -12682
00> -9354
01> -12719
00> -9382
01> -12795
00> -9398
01> -12771
00> -9379
01> -12772
00> -9409
01> -12786
00> -9430
01> -12749
00> -9468
01> -12706
00> -9474
01> -12829
00> -9394
01> -12837
00> -9455
01> -12690
00> -9380
01> -12738
00> -9402
01> -12685
00> -9457
01> -12714
00> -9465
01> -12783
00> -9378
01> -12757
00> -9330
01> -12739
00> -9348
01> -12731
00> -9406
01> -12775
00> -9406
01> -12736
00> -9361
01> -12716
00> -9357
01> -12722
00> -9409
01> -12745
00> -9519
01> -12757
00> -9463
01> -12731
00> -9360
01> -12726
00> -9339
01> -12760
00> -9354
01> -12777
00> -9387
01> -12772
00> -9397
01> -12731
00> -9372
01> -12708
00> -9387
01> -12679
00> -9438
01> -12745
00> -9425
01> -12817
00> -9434
01> -12780
00> -9426
01> -12727
00> -9371
01> -12709
00> -9389
01> -12721
00> -9400
01> -12804
00> -9400
01> -12749
00> -9388
01> -12720
00> -9366
01> -12741
00> -9389
01> -12737
00> -9410
01> -12751
00> -9387
01> -12740
00> -9382
01> -12709
00> -9382
01> -12709
00> -9409
01> -12732
00> -9411
01> -12765
00> -9403
01> -12741
00> -9392
01> -12703
00> -9379
01> -12699
00> -9418
01> -12748
00> -9410
01> -12766
00> -9376
01> -12725
00> -9361
01> -12706
00> -9362
01> -12696
00> -9386
01> -12727
00> -9373
01> -12741
00> -9384
01> -12739
00> -9380
01> -12711
00> -9397
01> -12684
00> -9408
01> -12681
00> -9375
01> -12741
00> -9381
01> -12726
00> -9408
01> -12699
00> -9383
01> -12705
00> -9371
01> -12740
00> -9377
01> -12741
00> -9378
01> -12719
00> -9403
01> -12691
00> -9364
01> -12672
00> -9384
01> -12680
00> -9406
01> -12739
00> -9394
01> -12721
00> -9366
01> -12666
00> -9361
01> -12674
00> -9398
01> -12721
00> -9416
01> -12769
00> -9380
01> -12751
00> -9349
01> -12696
00> -9369
01> -12694
00> -9394
01> -12741
00> -9404
01> -12754
00> -9395
01> -12713
00> -9370
01> -12672
00> -9396
01> -12681
00> -9407
01> -12716
00> -9399
01> -12766
00> -9383
01> -12739
00> -9354
01> -12688
00> -9361
01> -12665
00> -9374
01> -12698
00> -9391
01> -12734
00> -9392
01> -12706
00> -9356
01> -12672
00> -9366
01> -12680
00> -9384
01> -12687
00> -9392
01> -12716
00> -9398
01> -12716
00> -9356
01> -12672
00> -9369
01> -12665
00> -9364
01> -12691
00> -9365
01> -12720
00> -9366
01> -12696
00> -9356
01> -12664
00> -9361
01> -12658
00> -9381
01> -12666
00> -9376
01> -12696
00> -9361
01> -12686
00> -9347
01> -12649
00> -9336
01> -12622
00> -9344
01> -12652
00> -9367
01> -12693
00> -9370
01> -12676
00> -9361
01> -12635
00> -9344
01> -12636
00> -9346
01> -12664
00> -9354
01> -12691
00> -9371
01> -12671
00> -9361
01> -12629
00> -9344
01> -12606
00> -9352
01> -12620
00> -9361
01> -12681
00> -9364
01> -12694
00> -9358
01> -12646
00> -9355
01> -12621
00> -9353
01> -12656
00> -9371
01> -12683
00> -9362
01> -12665
00> -9335
01> -12617
00> -9327
01> -12598
00> -9356
01> -12646
00> -9401
01> -12679
00> -9400
01> -12674
00> -9367
01> -12651
00> -9360
01> -12625
00> -9347
01> -12629
00> -9362
01> -12665
00> -9359
01> -12661
00> -9342
01> -12635
00> -9351
01> -12619
00> -9352
01> -12650
00> -9366
01> -12669
00> -9371
01> -12659
00> -9349
01> -12615
00> -9340
01> -12599
00> -9356
01> -12622
00> -9372
01> -12656
00> -9369
01> -12680
00> -9351
01> -12629
00> -9351
01> -12606
00> -9363
01> -12636
00> -9364
01> -12664
00> -9362
01> -12651
00> -9368
01> -12604
00> -9357
01> -12589
00> -9361
01> -12642
00> -9362
01> -12644
00> -9350
01> -12647
00> -9337
01> -12616
00> -9331
01> -12594
00> -9356
01> -12613
00> -9371
01> -12651
00> -9363
01> -12662
00> -9346
01> -12611
00> -9349
01> -12585
00> -9342
01> -12599
00> -9367
01> -12625
00> -9374
01> -12639
00> -9341
01> -12572
00> -9319
01> -12572
00> -9344
01> -12616
00> -9372
01> -12669
00> -9368
01> -12639
00> -9359
01> -12619
00> -9342
01> -12604
00> -9344
01> -12611
00> -9361
01> -12623
00> -9384
01> -12612
00> -9356
01> -12572
00> -9337
01> -12579
00> -9352
01> -12609
00> -9373
01> -12633
00> -9374
01> -12624
00> -9366
01> -12603
00> -9344
01> -12579
00> -9350
01> -12581
00> -9357
01> -12640
00> -9371
01> -12634
00> -9356
01> -12591
00> -9336
01> -12564
00> -9344
01> -12587
00> -9357
01> -12629
00> -9361
01> -12623
00> -9351
01> -12607
00> -9345
01> -12583
00> -9347
01> -12601
00> -9379
01> -12630
00> -9370
01> -12626
00> -9339
01> -12591
00> -9347
01> -12571
00> -9378
01> -12583
00> -9365
01> -12617
00> -9386
01> -12626
00> -9377
01> -12597
00> -9334
01> -12571
00> -9333
01> -12577
00> -9349
01> -12604
00> -9362
01> -12603
00> -9346
01> -12574
00> -9341
01> -12567
00> -9358
01> -12596
00> -9376
01> -12625
00> -9377
01> -12618
00> -9352
01> -12572
00> -9339
01> -12539
00> -9357
01> -12575
00> -9377
01> -12607
00> -9368
01> -12601
00> -9367
01> -12574
00> -9352
01> -12549
00> -9354
01> -12572
00> -9372
01> -12605
00> -9366
01> -12609
00> -9349
01> -12582
00> -9336
01> -12554
00> -9344
01> -12572
00> -9366
01> -12602
00> -9364
01> -12596
00> -9339
01> -12556
00> -9321
01> -12532
00> -9343
01> -12547
00> -9369
01> -12576
00> -9362
01> -12586
00> -9345
01> -12564
00> -9330
01> -12529
00> -9324
01> -12546
00> -9351
01> -12589
00> -9348
01> -12574
00> -9339
01> -12540
00> -9328
01> -12534
00> -9334
01> -12554
00> -9359
01> -12579
00> -9372
01> -12582
00> -9338
01> -12557
00> -9322
01> -12536
00> -9326
01> -12544
00> -9346
01> -12574
00> -9343
01> -12572
00> -9331
01> -12537
00> -9329
01> -12512
00> -9342
01> -12535
00> -9355
01> -12573
00> -9352
01> -12578
00> -9334
01> -12546
00> -9324
01> -12520
00> -9334
01> -12541
00> -9346
01> -12581
00> -9339
01> -12586
00> -9328
01> -12536
00> -9321
01> -12501
00> -9324
01> -12520
00> -9349
01> -12561
00> -9347
01> -12562
00> -9327
01> -12526
00> -9312
01> -12498
00> -9316
01> -12512
00> -9332
01> -12547
00> -9329
01> -12552
00> -9316
01> -12524
00> -9312
01> -12501
00> -9323
01> -12515
00> -9341
01> -12541
00> -9339
01> -12541
00> -9321
01> -12503
00> -9304
01> -12480
00> -9312
01> -12504
00> -9327
01> -12547
00> -9327
01> -12542
00> -9323
01> -12515
00> -9317
01> -12491
00> -9322
01> -12512
00> -9345
01> -12551
00> -9355
01> -12555
00> -9331
01> -12528
00> -9319
01> -12499
00> -9321
01> -12506
00> -9336
01> -12538
00> -9343
01> -12549
00> -9336
01> -12529
00> -9325
01> -12507
00> -9326
01> -12509
00> -9329
01> -12516
00> -9334
01> -12519
00> -9329
01> -12499
00> -9326
01> -12480
00> -9327
01> -12496
00> -9340
01> -12527
00> -9348
01> -12535
00> -9336
01> -12499
00> -9316
01> -12469
00> -9317
01> -12492
00> -9342
01> -12529
00> -9345
01> -12527
00> -9336
01> -12496
00> -9330
01> -12477
00> -9337
01> -12489
00> -9335
01> -12511
00> -9341
01> -12510
00> -9327
01> -12484
00> -9323
01> -12469
00> -9326
01> -12482
00> -9348
01> -12517
00> -9355
01> -12521
00> -9341
01> -12491
00> -9331
01> -12464
00> -9352
01> -12489
00> -9369
01> -12519
00> -9356
01> -12527
00> -9344
01> -12488
00> -9334
01> -12458
00> -9341
01> -12478
00> -9352
01> -12509
00> -9353
01> -12514
00> -9347
01> -12494
00> -9324
01> -12439
00> -9309
01> -12440
00> -9343
01> -12488
00> -9363
01> -12504
00> -9351
01> -12474
00> -9332
01> -12440
00> -9331
01> -12452
00> -9349
01> -12486
00> -9354
01> -12498
00> -9349
01> -12475
00> -9329
01> -12467
00> -9330
01> -12472
00> -9359
01> -12504
00> -9363
01> -12516
00> -9347
01> -12489
00> -9324
01> -12455
00> -9318
01> -12464
00> -9332
01> -12491
00> -9338
01> -12495
00> -9324
01> -12458
00> -9314
01> -12422
00> -9326
01> -12437
00> -9347
01> -12477
00> -9349
01> -12493
00> -9345
01> -12471
00> -9326
01> -12436
00> -9329
01> -12439
00> -9347
01> -12458
00> -9355
01> -12472
00> -9341
01> -12444
00> -9320
01> -12412
00> -9337
01> -12429
00> -9354
01> -12462
00> -9341
01> -12480
00> -9323
01> -12447
00> -9315
01> -12417
00> -9321
01> -12426
00> -9343
01> -12467
00> -9357
01> -12471
00> -9341
01> -12434
00> -9317
01> -12403
00> -9315
01> -12418
00> -9340
01> -12457
00> -9349
01> -12474
00> -9339
01> -12446
00> -9322
01> -12411
00> -9314
01> -12409
00> -9323
01> -12431
00> -9342
01> -12447
00> -9332
01> -12421
00> -9317
01> -12399
00> -9329
01> -12414
00> -9347
01> -12451
00> -9351
01> -12460
00> -9335
01> -12434
00> -9317
01> -12399
00> -9327
01> -12405
00> -9352
01> -12453
00> -9355
01> -12470
00> -9338
01> -12437
00> -9319
01> -12410
00> -9330
01> -12412
00> -9342
01> -12441
00> -9353
01> -12455
00> -9343
01> -12432
00> -9324
01> -12417
00> -9329
01> -12427
00> -9342
01> -12444
00> -9341
01> -12439
00> -9324
01> -12408
00> -9312
01> -12376
00> -9316
01> -12389
00> -9339
01> -12427
00> -9345
01> -12434
00> -9327
01> -12402
00> -9310
01> -12360
00> -9306
01> -12354
00> -9315
01> -12391
00> -9331
01> -12416
00> -9326
01> -12392
00> -9315
01> -12349
00> -9320
01> -12357
00> -9325
01> -12410
00> -9337
01> -12422
00> -9326
01> -12382
00> -9304
01> -12337
00> -9299
01> -12330
00> -9317
01> -12365
00> -9337
01> -12393
00> -9333
01> -12371
00> -9310
01> -12352
00> -9302
01> -12358
00> -9320
01> -12392
00> -9331
01> -12398
00> -9316
01> -12371
00> -9299
01> -12349
00> -9297
01> -12348
00> -9314
01> -12377
00> -9321
01> -12382
00> -9314
01> -12352
00> -9301
01> -12328
00> -9303
01> -12347
00> -9321
01> -12391
00> -9326
01> -12389
00> -9314
01> -12349
00> -9296
01> -12318
00> -9292
01> -12329
00> -9312
01> -12365
00> -9326
01> -12377
00> -9321
01> -12359
00> -9304
01> -12329
00> -9307
01> -12334
00> -9322
01> -12368
00> -9326
01> -12376
00> -9316
01> -12351
00> -9299
01> -12324
00> -9297
01> -12321
00> -9314
01> -12348
00> -9329
01> -12373
00> -9326
01> -12354
00> -9303
01> -12326
00> -9293
01> -12321
00> -9300
01> -12345
00> -9314
01> -12365
00> -9315
01> -12346
00> -9307
01> -12322
00> -9311
01> -12334
00> -9318
01> -12367
00> -9327
01> -12377
00> -9324
01> -12341
00> -9307
01> -12311
00> -9296
01> -12309
00> -9311
01> -12346
00> -9331
01> -12374
00> -9323
01> -12352
00> -9307
01> -12331
00> -9302
01> -12328
00> -9317
01> -12343
00> -9327
01> -12354
00> -9302
01> -12317
00> -9291
01> -12287
00> -9304
01> -12300
00> -9322
01> -12345
00> -9337
01> -12371
00> -9327
01> -12346
00> -9304
01> -12311
00> -9302
01> -12300
00> -9308
01> -12333
00> -9322
01> -12353
00> -9315
01> -12319
00> -9293
01> -12289
00> -9300
01> -12289
00> -9309
01> -12322
00> -9321
01> -12347
00> -9307
01> -12328
00> -9288
01> -12287
00> -9295
01> -12281
00> -9302
01> -12320
00> -9315
01> -12337
00> -9298
01> -12309
00> -9285
01> -12262
00> -9286
01> -12271
00> -9302
01> -12308
00> -9317
01> -12337
00> -9311
01> -12314
00> -9296
01> -12273
00> -9294
01> -12271
00> -9304
01> -12319
00> -9309
01> -12329
00> -9296
01> -12291
00> -9282
01> -12259
00> -9289
01> -12269
00> -9304
01> -12298
00> -9302
01> -12306
00> -9292
01> -12281
00> -9284
01> -12256
00> -9284
01> -12263
00> -9289
01> -12305
00> -9309
01> -12312
00> -9302
01> -12281
00> -9295
01> -12244
00> -9285
01> -12246
00> -9299
01> -12284
00> -9307
01> -12311
00> -9286
01> -12278
00> -9274
01> -12254
00> -9283
01> -12259
00> -9298
01> -12281
00> -9306
01> -12301
00> -9304
01> -12284
00> -9282
01> -12249
00> -9285
01> -12242
00> -9302
01> -12278
00> -9304
01> -12294
00> -9290
01> -12261
00> -9272
01> -12222
00> -9269
01> -12219
00> -9276
01> -12263
00> -9301
01> -12287
00> -9292
01> -12260
00> -9269
01> -12222
00> -9268
01> -12217
00> -9289
01> -12246
00> -9306
01> -12280
00> -9296
01> -12261
00> -9272
01> -12219
00> -9266
01> -12212
00> -9274
01> -12247
00> -9291
01> -12270
00> -9282
01> -12258
00> -9266
01> -12217
00> -9269
01> -12209
00> -9283
01> -12239
00> -9299
01> -12269
00> -9291
01> -12251
00> -9276
01> -12216
00> -9274
01> -12209
00> -9286
01> -12239
00> -9292
01> -12266
00> -9282
01> -12239
00> -9275
01> -12204
00> -9287
01> -12213
00> -9284
01> -12248
00> -9284
01> -12259
00> -9277
01> -12231
00> -9258
01> -12203
00> -9267
01> -12183
00> -9280
01> -12217
00> -9291
01> -12249
00> -9275
01> -12236
00> -9260
01> -12200
00> -9259
01> -12191
00> -9276
01> -12214
00> -9294
01> -12237
00> -9275
01> -12212
00> -9250
01> -12183
00> -9258
01> -12189
00> -9277
01> -12212
00> -9290
01> -12229
00> -9281
01> -12208
00> -9252
01> -12179
00> -9247
01> -12172
00> -9250
01> -12190
00> -9275
01> -12222
00> -9267
01> -12216
00> -9267
01> -12176
00> -9259
01> -12174
00> -9265
01> -12207
00> -9286
01> -12241
00> -9280
01> -12235
00> -9260
01> -12191
00> -9247
01> -12182
00> -9267
01> -12199
00> -9282
01> -12228
00> -9273
01> -12211
00> -9261
01> -12172
00> -9253
01> -12151
00> -9267
01> -12187
00> -9276
01> -12225
00> -9266
01> -12202
00> -9258
01> -12178
00> -9262
01> -12177
00> -9278
01> -12209
00> -9301
01> -12235
00> -9284
01> -12206
00> -9258
01> -12156
00> -9243
01> -12146
00> -9262
01> -12199
00> -9286
01> -12226
00> -9297
01> -12226
00> -9267
01> -12187
00> -9264
01> -12167
00> -9281
01> -12192
00> -9287
01> -12222
00> -9277
01> -12204
00> -9265
01> -12162
00> -9271
01> -12146
00> -9279
01> -12177
00> -9286
01> -12215
00> -9278
01> -12202
00> -9263
01> -12158
00> -9247
01> -12136
00> -9258
01> -12164
00> -9281
01> -12192
00> -9279
01> -12182
00> -9257
01> -12145
00> -9249
01> -12136
00> -9261
01> -12162
00> -9284
01> -12182
00> -9269
01> -12162
00> -9249
01> -12131
00> -9254
01> -12122
00> -9259
01> -12160
00> -9282
01> -12194
00> -9278
01> -12187
00> -9252
01> -12142
00> -9239
01> -12124
00> -9258
01> -12158
00> -9282
01> -12194
00> -9281
01> -12183
00> -9266
01> -12148
00> -9266
01> -12136
00> -9279
01> -12149
00> -9272
01> -12179
00> -9271
01> -12175
00> -9252
01> -12141
00> -9242
01> -12129
00> -9248
01> -12152
00> -9261
01> -12179
00> -9267
01> -12175
00> -9252
01> -12141
00> -9241
01> -12126
00> -9254
01> -12149
00> -9278
01> -12167
00> -9271
01> -12173
00> -9251
01> -12140
00> -9241
01> -12126
00> -9256
01> -12162
00> -9279
01> -12185
00> -9271
01> -12172
00> -9248
01> -12144
00> -9250
01> -12129
00> -9261
01> -12150
00> -9273
01> -12177
00> -9269
01> -12163
00> -9246
01> -12119
00> -9239
01> -12106
00> -9254
01> -12134
00> -9269
01> -12164
00> -9270
01> -12151
00> -9249
01> -12107
00> -9232
01> -12087
00> -9241
01> -12126
00> -9271
01> -12159
00> -9269
01> -12159
00> -9249
01> -12126
00> -9251
01> -12112
00> -9257
01> -12138
00> -9269
01> -12172
00> -9267
01> -12155
00> -9237
01> -12109
00> -9231
01> -12083
00> -9247
01> -12111
00> -9261
01> -12162
00> -9254
01> -12153
00> -9249
01> -12114
00> -9239
01> -12101
00> -9254
01> -12130
00> -9268
01> -12162
00> -9256
01> -12149
00> -9247
01> -12107
00> -9239
01> -12092
00> -9251
01> -12115
00> -9266
01> -12156
00> -9262
01> -12149
00> -9241
01> -12114
00> -9244
01> -12102
00> -9256
01> -12130
00> -9273
01> -12153
00> -9264
01> -12138
00> -9231
01> -12087
00> -9234
01> -12081
00> -9259
01> -12115
00> -9269
01> -12143
00> -9257
01> -12129
00> -9244
01> -12094
00> -9228
01> -12076
00> -9245
01> -12112
00> -9270
01> -12149
00> -9263
01> -12146
00> -9245
01> -12099
00> -9243
01> -12077
00> -9251
01> -12105
00> -9259
01> -12134
00> -9258
01> -12127
00> -9231
01> -12085
00> -9214
01> -12063
00> -9230
01> -12098
00> -9259
01> -12132
00> -9254
01> -12125
00> -9232
01> -12088
00> -9217
01> -12070
00> -9229
01> -12102
00> -9249
01> -12137
00> -9256
01> -12127
00> -9244
01> -12088
00> -9233
01> -12078
00> -9240
01> -12099
00> -9257
01> -12143
00> -9259
01> -12146
00> -9246
01> -12106
00> -9236
01> -12094
00> -9243
01> -12116
00> -9259
01> -12132
00> -9246
01> -12113
00> -9219
01> -12059
00> -9210
01> -12035
00> -9234
01> -12081
00> -9262
01> -12132
00> -9262
01> -12128
00> -9238
01> -12086
00> -9222
01> -12062
00> -9227
01> -12086
00> -9246
01> -12120
00> -9251
01> -12109
00> -9225
01> -12066
00> -9217
01> -12050
00> -9233
01> -12076
00> -9258
01> -12113
00> -9254
01> -12112
00> -9237
01> -12079
00> -9229
01> -12066
00> -9234
01> -12084
00> -9247
01> -12112
00> -9252
01> -12103
00> -9232
01> -12059
00> -9217
01> -12036
00> -9227
01> -12064
00> -9260
01> -12104
00> -9257
01> -12099
00> -9242
01> -12067
00> -9229
01> -12046
00> -9241
01> -12076
00> -9251
01> -12104
00> -9235
01> -12092
00> -9219
01> -12051
00> -9213
01> -12041
00> -9223
01> -12068
00> -9245
01> -12103
00> -9247
01> -12092
00> -9224
01> -12049
00> -9219
01> -12036
00> -9231
01> -12069
00> -9244
01> -12098
00> -9241
01> -12097
00> -9224
01> -12058
00> -9211
01> -12036
00> -9219
01> -12056
00> -9234
01> -12089
00> -9244
01> -12095
00> -9221
01> -12061
00> -9205
01> -12036
00> -9216
01> -12060
00> -9242
01> -12099
00> -9230
01> -12089
00> -9212
01> -12041
00> -9205
01> -12019
00> -9219
01> -12046
00> -9236
01> -12079
00> -9241
01> -12076
00> -9224

00> -9206
01> -12011
00> -9203
01> -12027
00> -9231
01> -12072
00> -9241
01> -12073
00> -9216
01> -12026
00> -9206
01> -12004
00> -9210
01> -12025
00> -9233
01> -12057
00> -9236
01> -12060
00> -9229
01> -12022
00> -9214
01> -11996
00> -9217
01> -12034
00> -9241
01> -12072
00> -9241
01> -12075
00> -9216
01> -12040
00> -9204
01> -12003
00> -9219
01> -12016
00> -9231
01> -12058
00> -9238
01> -12065
00> -9222
01> -12031
00> -9206
01> -12001
00> -9201
01> -12014
00> -9224
01> -12048
00> -9239
01> -12051
00> -9216
01> -12016
00> -9201
01> -11991
00> -9216
01> -12019
00> -9236
01> -12059
00> -9234
01> -12069
00> -9222
01> -12027
00> -9214
01> -11994
00> -9229
01> -12015
00> -9242
01> -12053
00> -9242
01> -12056
00> -9223
01> -12019
00> -9211
01> -11991
00> -9217
01> -12007
00> -9235
01> -12046
00> -9241
01> -12048
00> -9224
01> -12014
00> -9198
01> -11986
00> -9209
01> -12004
00> -9241
01> -12047
00> -9249
01> -12061
00> -9233
01> -12024
00> -9221
01> -11996
00> -9216
01> -12009
00> -9226
01> -12044
00> -9231
01> -12041
00> -9204
01> -11996
00> -9196
01> -11972
00> -9222
01> -12000
00> -9244
01> -12061
00> -9244
01> -12070
00> -9224
01> -12026
00> -9211
01> -11983
00> -9209
01> -11991
00> -9227
01> -12034
00> -9236
01> -12042
00> -9214
01> -12004
00> -9196
01> -11977
00> -9206
01> -11989
00> -9231
01> -12031
00> -9233
01> -12036
00> -9209
01> -12005
00> -9189
01> -11970
00> -9202
01> -11989
00> -9222
01> -12031
00> -9237
01> -12041
00> -9221
01> -12007
00> -9197
01> -11970
00> -9191
01> -11971
00> -9220
01> -12010
00> -9237
01> -12022
00> -9216
01> -11990
00> -9199
01> -11947
00> -9197
01> -11965
00> -9212
01> -12005
00> -9214
01> -12014
00> -9192
01> -11974
00> -9176
01> -11940
00> -9187
01> -11957
00> -9208
01> -11986
00> -9211
01> -12000
00> -9196
01> -11980
00> -9182
01> -11949
00> -9176
01> -11959
00> -9193
01> -11992
00> -9188
01> -11990
00> -9171
01> -11951
00> -9157
01> -11919
00> -9166
01> -11936
00> -9189
01> -11979
00> -9197
01> -11989
00> -9174
01> -11955
00> -9170
01> -11930
00> -9182
01> -11952
00> -9188
01> -11984
00> -9192
01> -11983
00> -9191
01> -11951
00> -9169
01> -11928
00> -9174
01> -11947
00> -9196
01> -11992
00> -9210
01> -12003
00> -9196
01> -11967
00> -9181
01> -11931
00> -9175
01> -11936
00> -9197
01> -11964
00> -9213
01> -11976
00> -9205
01> -11956
00> -9194
01> -11939
00> -9197
01> -11951
00> -9200
01> -11972
00> -9196
01> -11982
00> -9187
01> -11951
00> -9176
01> -11920
00> -9187
01> -11932
00> -9208
01> -11971
00> -9209
01> -11975
00> -9187
01> -11942
00> -9166
01> -11910
00> -9171
01> -11921
00> -9192
01> -11959
00> -9197
01> -11968
00> -9192
01> -11937
00> -9181
01> -11911
00> -9189
01> -11932
00> -9211
01> -11979
00> -9226
01> -11994
00> -9206
01> -11956
00> -9190
01> -11920
00> -9183
01> -11929
00> -9197
01> -11964
00> -9218
01> -11977
00> -9206
01> -11941
00> -9184
01> -11896
00> -9185
01> -11922
00> -9213
01> -11972
00> -9225
01> -11987
00> -9199
01> -11942
00> -9179
01> -11913
00> -9189
01> -11922
00> -9203
01> -11949
00> -9209
01> -11959
00> -9195
01> -11931
00> -9176
01> -11902
00> -9178
01> -11918
00> -9201
01> -11957
00> -9208
01> -11959
00> -9191
01> -11911
00> -9167
01> -11870
00> -9172
01> -11887
00> -9192
01> -11935
00> -9202
01> -11952
00> -9203
01> -11937
00> -9189
01> -11904
00> -9188
01> -11904
00> -9202
01> -11944
00> -9206
01> -11957
00> -9195
01> -11926
00> -9180
01> -11892
00> -9176
01> -11895
00> -9197
01> -11939
00> -9211
01> -11951
00> -9191
01> -11917
00> -9169
01> -11887
00> -9179
01> -11897
00> -9198
01> -11934
00> -9209
01> -11961
00> -9194
01> -11934
00> -9182
01> -11886
00> -9182
01> -11886
00> -9202
01> -11919
00> -9219
01> -11939
00> -9205
01> -11926
00> -9174
01> -11896
00> -9172
01> -11892
00> -9201
01> -11928
00> -9217
01> -11945
00> -9200
01> -11913
00> -9176
01> -11878
00> -9179
01> -11882
00> -9202
01> -11920
00> -9213
01> -11943
00> -9201
01> -11909
00> -9186
01> -11869
00> -9186
01> -11877
00> -9202
01> -11905
00> -9207
01> -11922
00> -9194
01> -11891
00> -9169
01> -11866
00> -9171
01> -11882
00> -9194
01> -11919
00> -9206
01> -11930
00> -9191
01> -11897
00> -9174
01> -11857
00> -9183
01> -11862
00> -9196
01> -11896
00> -9201
01> -11918
00> -9192
01> -11895
00> -9181
01> -11864
00> -9188
01> -11877
00> -9207
01> -11917
00> -9212
01> -11924
00> -9201
01> -11893
00> -9186
01> -11858
00> -9191
01> -11857
00> -9204
01> -11893
00> -9211
01> -11910
00> -9192
01> -11883
00> -9174
01> -11851
00> -9186
01> -11871
00> -9212
01> -11917
00> -9214
01> -11937
00> -9199
01> -11909
00> -9181
01> -11861
00> -9179
01> -11852
00> -9193
01> -11888
00> -9202
01> -11906
00> -9184
01> -11877
00> -9167
01> -11844
00> -9167
01> -11849
00> -9186
01> -11882
00> -9199
01> -11899
00> -9184
01> -11876
00> -9170
01> -11837
00> -9165
01> -11852
00> -9182
01> -11892
00> -9191
01> -11905
00> -9183
01> -11877
00> -9171
01> -11830
00> -9164
01> -11831
00> -9186
01> -11874
00> -9202
01> -11893
00> -9184
01> -11862
00> -9163
01> -11819
00> -9168
01> -11827
00> -9182
01> -11874
00> -9191
01> -11912
00> -9184
01> -11892
00> -9166
01> -11836
00> -9156
01> -11818
00> -9174
01> -11845
00> -9192
01> -11872
00> -9181
01> -11848
00> -9169
01> -11815
00> -9170
01> -11820
00> -9187
01> -11867
00> -9197
01> -11883
00> -9176
01> -11849
00> -9156
01> -11806
00> -9156
01> -11816
00> -9180
01> -11859
00> -9193
01> -11881
00> -9189
01> -11849
00> -9168
01> -11807
00> -9167
01> -11806
00> -9179
01> -11841
00> -9188
01> -11870
00> -9173
01> -11842
00> -9160
01> -11812
00> -9168
01> -11819
00> -9183
01> -11859
00> -9184
01> -11879
00> -9176
01> -11838
00> -9156
01> -11789
00> -9154
01> -11785
00> -9177
01> -11831
00> -9197
01> -11861
00> -9187
01> -11834
00> -9168
01> -11798
00> -9161
01> -11794
00> -9182
01> -11827
00> -9199
01> -11852
00> -9186
01> -11827
00> -9172
01> -11795
00> -9167
01> -11792
00> -9182
01> -11822
00> -9201
01> -11849
00> -9189
01> -11833
00> -9169
01> -11794
00> -9172
01> -11796
00> -9191
01> -11836
00> -9195
01> -11856
00> -9182
01> -11838
00> -9166
01> -11788
00> -9164
01> -11775
00> -9181
01> -11810
00> -9192
01> -11836
00> -9183
01> -11826
00> -9170
01> -11791
00> -9170
01> -11785
00> -9189
01> -11824
00> -9202
01> -11850
00> -9189
01> -11825
00> -9169
01> -11785
00> -9165
01> -11776
00> -9178
01> -11811
00> -9192
01> -11833
00> -9186
01> -11816
00> -9175
01> -11789
00> -9174
01> -11787
00> -9187
01> -11812
00> -9200
01> -11824
00> -9186
01> -11803
00> -9174
01> -11770
00> -9171
01> -11760
00> -9189
01> -11796
00> -9209
01> -11831
00> -9201
01> -11818
00> -9181
01> -11786
00> -9176
01> -11776
00> -9182
01> -11791
00> -9192
01> -11809
00> -9191
01> -11799
00> -9174
01> -11774
00> -9176
01> -11776
00> -9194
01> -11803
00> -9203
01> -11826
00> -9184
01> -11799
00> -9155
01> -11751
00> -9152
01> -11744
00> -9179
01> -11782
00> -9194
01> -11806
00> -9178
01> -11786
00> -9152
01> -11747
00> -9152
01> -11734
00> -9165
01> -11763
00> -9169
01> -11791
00> -9172
01> -11772
00> -9155
01> -11734
00> -9149
01> -11726
00> -9159
01> -11759
00> -9182
01> -11796
00> -9173
01> -11781
00> -9156
01> -11739
00> -9149
01> -11724
00> -9170
01> -11754
00> -9183
01> -11782
00> -9172
01> -11764
00> -9154
01> -11731
00> -9149
01> -11740
00> -9166
01> -11771
00> -9179
01> -11789
00> -9176
01> -11764
00> -9156
01> -11724
00> -9141
01> -11719
00> -9158
01> -11758
00> -9176
01> -11777
00> -9164
01> -11756
00> -9144
01> -11727
00> -9132
01> -11722
00> -9157
01> -11756
00> -9181
01> -11789
00> -9174
01> -11776
00> -9150
01> -11734
00> -9137
01> -11718
00> -9146
01> -11736
00> -9153
01> -11759
00> -9155
01> -11752
00> -9150
01> -11729
00> -9148
01> -11719
00> -9159
01> -11752
00> -9176
01> -11789
00> -9177
01> -11773
00> -9149
01> -11732
00> -9145
01> -11712
00> -9161
01> -11742
00> -9180
01> -11767
00> -9172
01> -11744
00> -9148
01> -11707
00> -9141
01> -11700
00> -9156
01> -11731
00> -9181
01> -11760
00> -9169
01> -11737
00> -9149
01> -11704
00> -9146
01> -11697
00> -9159
01> -11732
00> -9177
01> -11762
00> -9172
01> -11744
00> -9152
01> -11715
00> -9154
01> -11712
00> -9172
01> -11742
00> -9187
01> -11759
00> -9176
01> -11729
00> -9149
01> -11683
00> -9145
01> -11686
00> -9164
01> -11724
00> -9174
01> -11748
00> -9166
01> -11724
00> -9151
01> -11681
00> -9143
01> -11681
00> -9146
01> -11714
00> -9161
01> -11729
00> -9164
01> -11710
00> -9142
01> -11678
00> -9130
01> -11675
00> -9155
01> -11701
00> -9174
01> -11738
00> -9166
01> -11726
00> -9151
01> -11690
00> -9149
01> -11687
00> -9166
01> -11717
00> -9170
01> -11744
00> -9159
01> -11716
00> -9141
01> -11667
00> -9134
01> -11659
00> -9161
01> -11702
00> -9180
01> -11731
00> -9171
01> -11721
00> -9152
01> -11684
00> -9141
01> -11666
00> -9153
01> -11694
00> -9175
01> -11727
00> -9174
01> -11715
00> -9144
01> -11670
00> -9141
01> -11662
00> -9168
01> -11706
00> -9185
01> -11739
00> -9173
01> -11719
00> -9151
01> -11671
00> -9139
01> -11656
00> -9154
01> -11688
00> -9174
01> -11722
00> -9169
01> -11700
00> -9149
01> -11666
00> -9147
01> -11658
00> -9168
01> -11691
00> -9187
01> -11720
00> -9175
01> -11704
00> -9151
01> -11667
00> -9146
01> -11658
00> -9174
01> -11685
00> -9186
01> -11719
00> -9178
01> -11701
00> -9150
01> -11661
00> -9142
01> -11642
00> -9150
01> -11670
00> -9170
01> -11707
00> -9170
01> -11699
00> -9156
01> -11663
00> -9145
01> -11659
00> -9161
01> -11694
00> -9171
01> -11719
00> -9162
01> -11697
00> -9145
01> -11656
00> -9139
01> -11637
00> -9151
01> -11664
00> -9168
01> -11701
00> -9162
01> -11691
00> -9145
01> -11652
00> -9137
01> -11633
00> -9152
01> -11661
00> -9164
01> -11693
00> -9163
01> -11677
00> -9134
01> -11629
00> -9121
01> -11611
00> -9134
01> -11636
00> -9166
01> -11681
00> -9176
01> -11692
00> -9153
01> -11652
00> -9144
01> -11617
00> -9147
01> -11645
00> -9156
01> -11681
00> -9151
01> -11672
00> -9136
01> -11637
00> -9119
01> -11612
00> -9132
01> -11630
00> -9152
01> -11664
00> -9152
01> -11666
00> -9136
01> -11642
00> -9130
01> -11622
00> -9132
01> -11640
00> -9147
01> -11670
00> -9144
01> -11661
00> -9136
01> -11622
00> -9137
01> -11610
00> -9150
01> -11646
00> -9169
01> -11686
00> -9172
01> -11672
00> -9145
01> -11621
00> -9129
01> -11600
00> -9138
01> -11631
00> -9151
01> -11662
00> -9149
01> -11649
00> -9142
01> -11620
00> -9137
01> -11604
00> -9145
01> -11634
00> -9160
01> -11663
00> -9164
01> -11660
00> -9144
01> -11619
00> -9125
01> -11599
00> -9141
01> -11634
00> -9162
01> -11661
00> -9159
01> -11644
00> -9141
01> -11601
00> -9129
01> -11584
00> -9143
01> -11612
00> -9156
01> -11649
00> -9158
01> -11640
00> -9141
01> -11599
00> -9129
01> -11587
00> -9143
01> -11612
00> -9159
01> -11646
00> -9159
01> -11652
00> -9138
01> -11612
00> -9121
01> -11586
00> -9125
01> -11595
00> -9134
01> -11614
00> -9140
01> -11624
00> -9131
01> -11602
00> -9129
01> -11591
00> -9135
01> -11614
00> -9151
01> -11640
00> -9151
01> -11631
00> -9129
01> -11586
00> -9111
01> -11564
00> -9122
01> -11597
00> -9148
01> -11636
00> -9150
01> -11632
00> -9136
01> -11591
00> -9121
01> -11574
00> -9134
01> -11587
00> -9147
01> -11610
00> -9137
01> -11606
00> -9111
01> -11575
00> -9096
01> -11554
00> -9116
01> -11592
00> -9136
01> -11637
00> -9142
01> -11628
00> -9128
01> -11587
00> -9115
01> -11571
00> -9122
01> -11587
00> -9136
01> -11617
00> -9131
01> -11607
00> -9108
01> -11568
00> -9106
01> -11555
00> -9117
01> -11587
00> -9134
01> -11620
00> -9129
01> -11609
00> -9106
01> -11576
00> -9099
01> -11550
00> -9116
01> -11578
00> -9131
01> -11614
00> -9130
01> -11611
00> -9108
01> -11567
00> -9096
01> -11553
00> -9109
01> -11589
00> -9126
01> -11622
00> -9123
01> -11617
00> -9101
01> -11567
00> -9084
01> -11542
00> -9094
01> -11571
00> -9122
01> -11607
00> -9127
01> -11611
00> -9109
01> -11575
00> -9100
01> -11554
00> -9109
01> -11584
00> -9122
01> -11615
00> -9121
01> -11601
00> -9100
01> -11577
00> -9097
01> -11559
00> -9112
01> -11587
00> -9130
01> -11617
00> -9121
01> -11617
00> -9096
01> -11587
00> -9078
01> -11547
00> -9090
01> -11557
00> -9115
01> -11604
00> -9119
01> -11606
00> -9101
01> -11562
00> -9093
01> -11546
00> -9099
01> -11579
00> -9115
01> -11623
00> -9112
01> -11612
00> -9092
01> -11559
00> -9074
01> -11530
00> -9086
01> -11546
00> -9114
01> -11592
00> -9117
01> -11600
00> -9090
01> -11569
00> -9075
01> -11553
00> -9081
01> -11582
00> -9093
01> -11613
00> -9096
01> -11608
00> -9081
01> -11566
00> -9062
01> -11531
00> -9073
01> -11547
00> -9083
01> -11592
00> -9089
01> -11601
00> -9069
01> -11564
00> -9048
01> -11509
00> -9052
01> -11527
00> -9071
01> -11569
00> -9074
01> -11569
00> -9062
01> -11536
00> -9048
01> -11513
00> -9054
01> -11538
00> -9070
01> -11577
00> -9062
01> -11582
00> -9034
01> -11532
00> -9022
01> -11509
00> -9037
01> -11541
00> -9051
01> -11577
00> -9059
01> -11577
00> -9044
01> -11533
00> -9030
01> -11508
00> -9040
01> -11533
00> -9063
01> -11576
00> -9064
01> -11587
00> -9040
01> -11547
00> -9026
01> -11506
00> -9026
01> -11526
00> -9040
01> -11568
00> -9043
01> -11577
00> -9026
01> -11544
00> -9011
01> -11519
00> -9016
01> -11533
00> -9038
01> -11576
00> -9046
01> -11584
00> -9031
01> -11551
00> -9011
01> -11524
00> -9012
01> -11531
00> -9026
01> -11571
00> -9029
01> -11589
00> -9011
01> -11554
00> -8994
01> -11511
00> -8999
01> -11534
00> -9012
01> -11572
00> -9023
01> -11578
00> -9006
01> -11549
00> -8987
01> -11531
00> -8996
01> -11561
00> -9008
01> -11592
00> -9007
01> -11588
00> -8982
01> -11541
00> -8957
01> -11505
00> -8971
01> -11529
00> -9002
01> -11578
00> -9014
01> -11589
00> -8998
01> -11563
00> -8980
01> -11534
00> -8978
01> -11541
00> -8991
01> -11582
00> -8994
01> -11594
00> -8978
01> -11543
00> -8956
01> -11505
00> -8955
01> -11519
00> -8974
01> -11577
00> -8984
01> -11596
00> -8970
01> -11554
00> -8953
01> -11510
00> -8949
01> -11517
00> -8969
01> -11554
00> -8971
01> -11568
00> -8939
01> -11525
00> -8902
01> -11466
00> -8906
01> -11489
00> -8938
01> -11536
00> -8956
01> -11554
00> -8922
01> -11499
00> -8885
01> -11452
00> -8876
01> -11447
00> -8866
01> -11453
00> -8856
01> -11444
00> -8839
01> -11407
00> -8817
01> -11366
00> -8812
01> -11367
00> -8817
01> -11370
00> -8803
01> -11342
00> -8771
01> -11285
00> -8747
01> -11232
00> -8752
01> -11236
00> -8769
01> -11269
00> -8771
01> -11279
00> -8752
01> -11252
00> -8739
01> -11219
00> -8743
01> -11234
00> -8771
01> -11280
00> -8784
01> -11295
00> -8776
01> -11276
00> -8758
01> -11255
00> -8767
01> -11281
00> -8796
01> -11332
00> -8814
01> -11364
00> -8803
01> -11347
00> -8788
01> -11326
00> -8801
01> -11347
00> -8818
01> -11382
00> -8825
01> -11396
00> -8818
01> -11374
00> -8811
01> -11356
00> -8819
01> -11388
00> -8841
01> -11449
00> -8852
01> -11463
00> -8838
01> -11441
00> -8824
01> -11423
00> -8829
01> -11434
00> -8854
01> -11476
00> -8861
01> -11486
00> -8849
01> -11463
00> -8832
01> -11436
00> -8837
01> -11458
00> -8864
01> -11524
00> -8876
01> -11552
00> -8867
01> -11513
00> -8851
01> -11482
00> -8851
01> -11494
00> -8872
01> -11534
00> -8884
01> -11546
00> -8879
01> -11532
00> -8867
01> -11510
00> -8870
01> -11524
00> -8880
01> -11571
00> -8885
01> -11583
00> -8871
01> -11556
00> -8852
01> -11528
00> -8864
01> -11547
00> -8886
01> -11588
00> -8902
01> -11611
00> -8892
01> -11597
00> -8872
01> -11579
00> -8876
01> -11584
00> -8892
01> -11616
00> -8900
01> -11630
00> -8889
01> -11601
00> -8884
01> -11584
00> -8894
01> -11602
00> -8909
01> -11642
00> -8915
01> -11659
00> -8900
01> -11629
00> -8883
01> -11599
00> -8885
01> -11614
00> -8897
01> -11642
00> -8910
01> -11657
00> -8887
01> -11627
00> -8869
01> -11589
00> -8877
01> -11605
00> -8900
01> -11656
00> -8909
01> -11674
00> -8893
01> -11646
00> -8882
01> -11616
00> -8887
01> -11621
00> -8898
01> -11657
00> -8914
01> -11679
00> -8898
01> -11652
00> -8872
01> -11621
00> -8875
01> -11630
00> -8898
01> -11672
00> -8913
01> -11686
00> -8899
01> -11654
00> -8877
01> -11619
00> -8880
01> -11627
00> -8896
01> -11653
00> -8900
01> -11666
00> -8886
01> -11647
00> -8873
01> -11614
00> -8876
01> -11626
00> -8893
01> -11674
00> -8898
01> -11689
00> -8877
01> -11654
00> -8854
01> -11618
00> -8865
01> -11632
00> -8886
01> -11674
00> -8911
01> -11692
00> -8892
01> -11670
00> -8859
01> -11624
00> -8851
01> -11619
00> -8877
01> -11663
00> -8887
01> -11677
00> -8872
01> -11639
00> -8858
01> -11607
00> -8859
01> -11624
00> -8879
01> -11667
00> -8892
01> -11679
00> -8882
01> -11656
00> -8867
01> -11633
00> -8869
01> -11644
00> -8882
01> -11677
00> -8893
01> -11696
00> -8887
01> -11672
00> -8872
01> -11640
00> -8867
01> -11629
00> -8882
01> -11664
00> -8894
01> -11687
00> -8882
01> -11669
00> -8866
01> -11639
00> -8869
01> -11639
00> -8881
01> -11675
00> -8889
01> -11689
00> -8879
01> -11662
00> -8867
01> -11636
00> -8872
01> -11643
00> -8895
01> -11696
00> -8908
01> -11723
00> -8889
01> -11702
00> -8872
01> -11666
00> -8876
01> -11653
00> -8889
01> -11681
00> -8899
01> -11712
00> -8886
01> -11691
00> -8869
01> -11657
00> -8870
01> -11660
00> -8882
01> -11690
00> -8886
01> -11700
00> -8881
01> -11682
00> -8871
01> -11656
00> -8870
01> -11659
00> -8879
01> -11690
00> -8884
01> -11717
00> -8878
01> -11699
00> -8870
01> -11674
00> -8866
01> -11674
00> -8876
01> -11693
00> -8890
01> -11701
00> -8879
01> -11674
00> -8865
01> -11642
00> -8868
01> -11661
00> -8877
01> -11701
00> -8889
01> -11724
00> -8882
01> -11704
00> -8855
01> -11651
00> -8852
01> -11654
00> -8881
01> -11700
00> -8899
01> -11728
00> -8899
01> -11719
00> -8871
01> -11686
00> -8856
01> -11684
00> -8871
01> -11717
00> -8887
01> -11719
00> -8873
01> -11692
00> -8861
01> -11667
00> -8871
01> -11676
00> -8892
01> -11724
00> -8903
01> -11743
00> -8895
01> -11726
00> -8888
01> -11699
00> -8879
01> -11680
00> -8883
01> -11716
00> -8892
01> -11743
00> -8879
01> -11697
00> -8859
01> -11636
00> -8864
01> -11632
00> -8882
01> -11672
00> -8896
01> -11707
00> -8887
01> -11694
00> -8864
01> -11658
00> -8867
01> -11676
00> -8889
01> -11711
00> -8896
01> -11729
00> -8884
01> -11703
00> -8868
01> -11677
00> -8876
01> -11683
00> -8886
01> -11716
00> -8898
01> -11736
00> -8892
01> -11716
00> -8874
01> -11685
00> -8871
01> -11682
00> -8883
01> -11716
00> -8898
01> -11747
00> -8904
01> -11737
00> -8889
01> -11700
00> -8880
01> -11703
00> -8892
01> -11747
00> -8902
01> -11761
00> -8896
01> -11724
00> -8880
01> -11681
00> -8873
01> -11681
00> -8887
01> -11719
00> -8897
01> -11745
00> -8886
01> -11722
00> -8878
01> -11697
00> -8883
01> -11706
00> -8897
01> -11739
00> -8896
01> -11751
00> -8887
01> -11724
00> -8874
01> -11690
00> -8874
01> -11689
00> -8888
01> -11724
00> -8899
01> -11754
00> -8891
01> -11739
00> -8876
01> -11701
00> -8879
01> -11701
00> -8897
01> -11736
00> -8904
01> -11759
00> -8894
01> -11736
00> -8869
01> -11697
00> -8870
01> -11705
00> -8895
01> -11758
00> -8911
01> -11773
00> -8909
01> -11744
00> -8890
01> -11716
00> -8892
01> -11714
00> -8905
01> -11741
00> -8917
01> -11760
00> -8916
01> -11744
00> -8894
01> -11714
00> -8891
01> -11720
00> -8901
01> -11746
00> -8911
01> -11764
00> -8905
01> -11744
00> -8882
01> -11709
00> -8888
01> -11713
00> -8912
01> -11753
00> -8922
01> -11789
00> -8906
01> -11769
00> -8886
01> -11713
00> -8881
01> -11699
00> -8888
01> -11722
00> -8909
01> -11742
00> -8899
01> -11739
00> -8887
01> -11718
00> -8888
01> -11717
00> -8896
01> -11746
00> -8907
01> -11772
00> -8907
01> -11754
00> -8881
01> -11711
00> -8873
01> -11705
00> -8895
01> -11736
00> -8910
01> -11770
00> -8907
01> -11765
00> -8892
01> -11740
00> -8890
01> -11729
00> -8901
01> -11752
00> -8915
01> -11770
00> -8909
01> -11749
00> -8891
01> -11721
00> -8887
01> -11722
00> -8914
01> -11754
00> -8924
01> -11784
00> -8915
01> -11772
00> -8906
01> -11746
00> -8897
01> -11741
00> -8914
01> -11761
00> -8933
01> -11782
00> -8926
01> -11773
00> -8910
01> -11742
00> -8901
01> -11729
00> -8921
01> -11749
00> -8936
01> -11767
00> -8920
01> -11752
00> -8891
01> -11715
00> -8887
01> -11702
00> -8908
01> -11734
00> -8924
01> -11766
00> -8923
01> -11761
00> -8911
01> -11727
00> -8906
01> -11716
00> -8917
01> -11742
00> -8922
01> -11759
00> -8914
01> -11744
00> -8907
01> -11711
00> -8899
01> -11711
00> -8911
01> -11747
00> -8922
01> -11763
00> -8916
01> -11748
00> -8900
01> -11717
00> -8902
01> -11697
00> -8907
01> -11717
00> -8921
01> -11742
00> -8911
01> -11735
00> -8902
01> -11705
00> -8891
01> -11698
00> -8903
01> -11734
00> -8931
01> -11759
00> -8926
01> -11751
00> -8903
01> -11709
00> -8897
01> -11692
00> -8915
01> -11728
00> -8931
01> -11762
00> -8925
01> -11747
00> -8902
01> -11710
00> -8901
01> -11699
00> -8917
01> -11736
00> -8926
01> -11759
00> -8917
01> -11739
00> -8896
01> -11705
00> -8899
01> -11709
00> -8921
01> -11745
00> -8933
01> -11772
00> -8924
01> -11751
00> -8906
01> -11715
00> -8906
01> -11710
00> -8928
01> -11733
00> -8937
01> -11761
00> -8932
01> -11752
00> -8923
01> -11719
00> -8909
01> -11697
00> -8921
01> -11725
00> -8939
01> -11759
00> -8929
01> -11744
00> -8921
01> -11722
00> -8917
01> -11717
00> -8924
01> -11736
00> -8937
01> -11755
00> -8932
01> -11747
00> -8915
01> -11709
00> -8909
01> -11692
00> -8917
01> -11722
00> -8931
01> -11751
00> -8922
01> -11732
00> -8907
01> -11694
00> -8902
01> -11683
00> -8926
01> -11709
00> -8944
01> -11749
00> -8941
01> -11754
00> -8924
01> -11727
00> -8914
01> -11725
00> -8932
01> -11739
00> -8947
01> -11756
00> -8939
01> -11734
00> -8923
01> -11685
00> -8921
01> -11676
00> -8930
01> -11707
00> -8946
01> -11740
00> -8939
01> -11733
00> -8925
01> -11706
00> -8924
01> -11692
00> -8944
01> -11727
00> -8969
01> -11758
00> -8964
01> -11744
00> -8934
01> -11698
00> -8935
01> -11689
00> -8946
01> -11703
00> -8946
01> -11732
00> -8947
01> -11720
00> -8937
01> -11683
00> -8926
01> -11671
00> -8931
01> -11698
00> -8939
01> -11718
00> -8944
01> -11707
00> -8931
01> -11677
00> -8923
01> -11669
00> -8936
01> -11699
00> -8950
01> -11717
00> -8941
01> -11693
00> -8922
01> -11661
00> -8908
01> -11649
00> -8927
01> -11676
00> -8949
01> -11696
00> -8947
01> -11684
00> -8927
01> -11649
00> -8919
01> -11642
00> -8930
01> -11669
00> -8952
01> -11708
00> -8954
01> -11707
00> -8934
01> -11668
00> -8926
01> -11656
00> -8937
01> -11689
00> -8954
01> -11712
00> -8957
01> -11703
00> -8948
01> -11673
00> -8939
01> -11659
00> -8949
01> -11677
00> -8962
01> -11698
00> -8957
01> -11694
00> -8946
01> -11666
00> -8938
01> -11651
00> -8954
01> -11682
00> -8982
01> -11717
00> -8977
01> -11704
00> -8954
01> -11672
00> -8942
01> -11666
00> -8961
01> -11700
00> -8984
01> -11736
00> -8990
01> -11732
00> -8973
01> -11694
00> -8956
01> -11662
00> -8964
01> -11680
00> -8982
01> -11716
00> -8987
01> -11710
00> -8964
01> -11677
00> -8957
01> -11661
00> -8974
01> -11675
00> -8992
01> -11702
00> -8984
01> -11699
00> -8964
01> -11676
00> -8958
01> -11667
00> -8980
01> -11684
00> -8989
01> -11709
00> -8982
01> -11712
00> -8964
01> -11688
00> -8957
01> -11672
00> -8976
01> -11679
00> -8974
01> -11684
00> -8965
01> -11672
00> -8958
01> -11646
00> -8953
01> -11638
00> -8964
01> -11661
00> -8991
01> -11699
00> -8992
01> -11700
00> -8964
01> -11679
00> -8956
01> -11659
00> -8971
01> -11672
00> -8985
01> -11687
00> -8984
01> -11682
00> -8966
01> -11658
00> -8966
01> -11645
00> -8981
01> -11665
00> -8991
01> -11696
00> -8990
01> -11679
00> -8972
01> -11643
00> -8956
01> -11623
00> -8970
01> -11652
00> -8992
01> -11694
00> -8986
01> -11694
00> -8981
01> -11666
00> -8968
01> -11647
00> -8971
01> -11651
00> -8991
01> -11672
00> -8989
01> -11666
00> -8976
01> -11631
00> -8976
01> -11624
00> -8987
01> -11667
00> -9001
01> -11699
00> -8984
01> -11675
00> -8959
01> -11628
00> -8959
01> -11614
00> -8971
01> -11645
00> -8997
01> -11681
00> -9004
01> -11675
00> -8986
01> -11644
00> -8974
01> -11627
00> -8984
01> -11647
00> -8999
01> -11675
00> -8998
01> -11667
00> -8979
01> -11631
00> -8970
01> -11621
00> -8989
01> -11649
00> -9005
01> -11679
00> -8996
01> -11667
00> -8972
01> -11632
00> -8972
01> -11622
00> -8992
01> -11649
00> -9014
01> -11688
00> -9018
01> -11687
00> -9002
01> -11656
00> -8992
01> -11639
00> -9001
01> -11658
00> -9012
01> -11688
00> -9022
01> -11677
00> -9011
01> -11647
00> -8993
01> -11629
00> -9002
01> -11652
00> -9009
01> -11673
00> -9005
01> -11664
00> -8999
01> -11640
00> -8996
01> -11631
00> -9006
01> -11658
00> -9017
01> -11681
00> -9016
01> -11662
00> -9011
01> -11634
00> -9006
01> -11621
00> -9007
01> -11632
00> -9015
01> -11656
00> -9016
01> -11670
00> -9003
01> -11646
00> -8992
01> -11619
00> -9011
01> -11632
00> -9022
01> -11665
00> -9023
01> -11671
00> -9005
01> -11644
00> -8994
01> -11618
00> -8994
01> -11637
00> -9004
01> -11667
00> -9007
01> -11657
00> -8997
01> -11616
00> -8991
01> -11601
00> -9015
01> -11648
00> -9039
01> -11691
00> -9038
01> -11682
00> -9017
01> -11632
00> -8997
01> -11617
00> -9006
01> -11626
00> -9023
01> -11649
00> -9032
01> -11648
00> -9011
01> -11608
00> -9002
01> -11595
00> -9012
01> -11629
00> -9033
01> -11671
00> -9037
01> -11665
00> -9016
01> -11619
00> -9007
01> -11603
00> -9023
01> -11636
00> -9035
01> -11669
00> -9033
01> -11661
00> -9021
01> -11629
00> -9014
01> -11623
00> -9021
01> -11644
00> -9037
01> -11660
00> -9034
01> -11660
00> -9018
01> -11634
00> -9011
01> -11613
00> -9019
01> -11617
00> -9032
01> -11645
00> -9031
01> -11662
00> -9018
01> -11636
00> -9012
01> -11606
00> -9018
01> -11610
00> -9038
01> -11634
00> -9034
01> -11640
00> -9019
01> -11600
00> -9003
01> -11574
00> -9023
01> -11614
00> -9046
01> -11656
00> -9044
01> -11648
00> -9029
01> -11621
00> -9018
01> -11599
00> -9025
01> -11616
00> -9044
01> -11647
00> -9051
01> -11659
00> -9034
01> -11627
00> -9022
01> -11601
00> -9029
01> -11606
00> -9040
01> -11641
00> -9050
01> -11634
00> -9038
01> -11606
00> -9031
01> -11591
00> -9041
01> -11616
00> -9059
01> -11660
00> -9053
01> -11651
00> -9031
01> -11606
00> -9016
01> -11581
00> -9027
01> -11602
00> -9050
01> -11644
00> -9062
01> -11654
00> -9048
01> -11622
00> -9036
01> -11593
00> -9036
01> -11609
00> -9057
01> -11639
00> -9059
01> -11625
00> -9034
01> -11591
00> -9021
01> -11568
00> -9031
01> -11589
00> -9054
01> -11625
00> -9047
01> -11634
00> -9021
01> -11599
00> -9016
01> -11563
00> -9031
01> -11582
00> -9044
01> -11611
00> -9048
01> -11606
00> -9034
01> -11578
00> -9014
01> -11550
00> -9018
01> -11572
00> -9049
01> -11606
00> -9053
01> -11605
00> -9036
01> -11568
00> -9021
01> -11547
00> -9037
01> -11566
00> -9054
01> -11605
00> -9052
01> -11612
00> -9048
01> -11577
00> -9037
01> -11557
00> -9046
01> -11582
00> -9062
01> -11614
00> -9070
01> -11610
00> -9055
01> -11572
00> -9045
01> -11554
00> -9053
01> -11575
00> -9068
01> -11614
00> -9069
01> -11619
00> -9062
01> -11584
00> -9050
01> -11552
00> -9051
01> -11559
00> -9062
01> -11599
00> -9069
01> -11604
00> -9056
01> -11575
00> -9040
01> -11552
00> -9042
01> -11572
00> -9055
01> -11599
00> -9071
01> -11599
00> -9056
01> -11560
00> -9037
01> -11546
00> -9045
01> -11558
00> -9058
01> -11581
00> -9057
01> -11597
00> -9051
01> -11575
00> -9037
01> -11545
00> -9054
01> -11551
00> -9086
01> -11590
00> -9077
01> -11606
00> -9056
01> -11576
00> -9046
01> -11546
00> -9046
01> -11552
00> -9071
01> -11574
00> -9074
01> -11571
00> -9061
01> -11556
00> -9061
01> -11541
00> -9075
01> -11559
00> -9094
01> -11592
00> -9085
01> -11594
00> -9055
01> -11561
00> -9042
01> -11533
00> -9047
01> -11537
00> -9076
01> -11567
00> -9089
01> -11577
00> -9075
01> -11552
00> -9059
01> -11524
00> -9059
01> -11532
00> -9072
01> -11566
00> -9087
01> -11577
00> -9073
01> -11544
00> -9062
01> -11513
00> -9061
01> -11531
00> -9076
01> -11559
00> -9087
01> -11561
00> -9072
01> -11523
00> -9053
01> -11488
00> -9049
01> -11499
00> -9061
01> -11541
00> -9068
01> -11548
00> -9067
01> -11522
00> -9057
01> -11503
00> -9057
01> -11517
00> -9071
01> -11551
00> -9078
01> -11564
00> -9079
01> -11546
00> -9062
01> -11511
00> -9061
01> -11522
00> -9081
01> -11552
00> -9087
01> -11548
00> -9072
01> -11502
00> -9052
01> -11487
00> -9056
01> -11506
00> -9077
01> -11547
00> -9084
01> -11564
00> -9071
01> -11530
00> -9051
01> -11487
00> -9059
01> -11511
00> -9082
01> -11554
00> -9082
01> -11564
00> -9074
01> -11539
00> -9057
01> -11505
00> -9052
01> -11507
00> -9071
01> -11529
00> -9076
01> -11541
00> -9070
01> -11525
00> -9062
01> -11499
00> -9075
01> -11514
00> -9084
01> -11539
00> -9090
01> -11552
00> -9076
01> -11527
00> -9052
01> -11492
00> -9058
01> -11501
00> -9079
01> -11542
00> -9091
01> -11560
00> -9083
01> -11528
00> -9063
01> -11483
00> -9069
01> -11496
00> -9082
01> -11528
00> -9089
01> -11541
00> -9082
01> -11511
00> -9069
01> -11475
00> -9064
01> -11479
00> -9082
01> -11528
00> -9094
01> -11539
00> -9087
01> -11515
00> -9070
01> -11487
00> -9071
01> -11495
00> -9084
01> -11528
00> -9088
01> -11528
00> -9081
01> -11510
00> -9067
01> -11479
00> -9062
01> -11481
00> -9083
01> -11519
00> -9092
01> -11532
00> -9082
01> -11512
00> -9065
01> -11476
00> -9056
01> -11479
00> -9074
01> -11509
00> -9079
01> -11522
00> -9067
01> -11497
00> -9055
01> -11480
00> -9073
01> -11496
00> -9091
01> -11519
00> -9086
01> -11518
00> -9068
01> -11478
00> -9049
01> -11442
00> -9055
01> -11445
00> -9072
01> -11473
00> -9088
01> -11491
00> -9085
01> -11472
00> -9069
01> -11447
00> -9073
01> -11466
00> -9087
01> -11501
00> -9091
01> -11512
00> -9078
01> -11474
00> -9062
01> -11436
00> -9053
01> -11440
00> -9068
01> -11477
00> -9082
01> -11497
00> -9078
01> -11469
00> -9072
01> -11437
00> -9064
01> -11449
00> -9088
01> -11489
00> -9097
01> -11507
00> -9084
01> -11474
00> -9067
01> -11439
00> -9067
01> -11441
00> -9086
01> -11471
00> -9110
01> -11494
00> -9102
01> -11481
00> -9084
01> -11457
00> -9078
01> -11449
00> -9089
01> -11474
00> -9101
01> -11486
00> -9088
01> -11454
00> -9066
01> -11422
00> -9062
01> -11434
00> -9081
01> -11468
00> -9091
01> -11484
00> -9079
01> -11465
00> -9070
01> -11434
00> -9069
01> -11433
00> -9086
01> -11461
00> -9092
01> -11481
00> -9085
01> -11452
00> -9060
01> -11411
00> -9051
01> -11412
00> -9074
01> -11454
00> -9096
01> -11472
00> -9084
01> -11447
00> -9066
01> -11422
00> -9074
01> -11417
00> -9081
01> -11452
00> -9084
01> -11470
00> -9078
01> -11444
00> -9068
01> -11410
00> -9077
01> -11413
00> -9094
01> -11466
00> -9112
01> -11482
00> -9109
01> -11445
00> -9081
01> -11412
00> -9069
01> -11419
00> -9085
01> -11452
00> -9098
01> -11456
00> -9092
01> -11431
00> -9068
01> -11392
00> -9070
01> -11393
00> -9089
01> -11429
00> -9097
01> -11454
00> -9089
01> -11425
00> -9082
01> -11401
00> -9079
01> -11403
00> -9096
01> -11437
00> -9107
01> -11452
00> -9102
01> -11432
00> -9091
01> -11406
00> -9092
01> -11416
00> -9107
01> -11444
00> -9114
01> -11453
00> -9098
01> -11426
00> -9084
01> -11401
00> -9083
01> -11411
00> -9096
01> -11434
00> -9106
01> -11444
00> -9096
01> -11424
00> -9093
01> -11405
00> -9101
01> -11411
00> -9110
01> -11444
00> -9114
01> -11470
00> -9110
01> -11457
00> -9099
01> -11426
00> -9102
01> -11425
00> -9112
01> -11447
00> -9122
01> -11459
00> -9112
01> -11430
00> -9092
01> -11401
00> -9105
01> -11407
00> -9124
01> -11441
00> -9129
01> -11469
00> -9118
01> -11441
00> -9095
01> -11401
00> -9092
01> -11400
00> -9103
01> -11423
00> -9118
01> -11448
00> -9121
01> -11439
00> -9108
01> -11409
00> -9102
01> -11406
00> -9122
01> -11439
00> -9132
01> -11459
00> -9117
01> -11437
00> -9103
01> -11403
00> -9099
01> -11397
00> -9122
01> -11434
00> -9139
01> -11457
00> -9127
01> -11436
00> -9104
01> -11404
00> -9087
01> -11382
00> -9101
01> -11406
00> -9119
01> -11441
00> -9124
01> -11436
00> -9109
01> -11409
00> -9101
01> -11390
00> -9104
01> -11404
00> -9117
01> -11418
00> -9114
01> -11413
00> -9094
01> -11381
00> -9089
01> -11387
00> -9101
01> -11421
00> -9123
01> -11448
00> -9124
01> -11425
00> -9100
01> -11377
00> -9094
01> -11367
00> -9113
01> -11401
00> -9122
01> -11426
00> -9109
01> -11415
00> -9081
01> -11382
00> -9077
01> -11378
00> -9092
01> -11409
00> -9122
01> -11434
00> -9115
01> -11421
00> -9096
01> -11392
00> -9095
01> -11379
00> -9106
01> -11401
00> -9117
01> -11416
00> -9105
01> -11406
00> -9089
01> -11376
00> -9094
01> -11368
00> -9114
01> -11404
00> -9130
01> -11432
00> -9122
01> -11415
00> -9098
01> -11380
00> -9099
01> -11381
00> -9116
01> -11407
00> -9131
01> -11425
00> -9121
01> -11407
00> -9102
01> -11374
00> -9105
01> -11372
00> -9118
01> -11404
00> -9133
01> -11431
00> -9129
01> -11415
00> -9108
01> -11376
00> -9104
01> -11370
00> -9113
01> -11399
00> -9130
01> -11427
00> -9132
01> -11413
00> -9121
01> -11377
00> -9117
01> -11366
00> -9130
01> -11401
00> -9140
01> -11430
00> -9134
01> -11409
00> -9115
01> -11367
00> -9102
01> -11356
00> -9111
01> -11381
00> -9119
01> -11402
00> -9122
01> -11390
00> -9116
01> -11360
00> -9104
01> -11365
00> -9130
01> -11411
00> -9146
01> -11432
00> -9137
01> -11409
00> -9118
01> -11376
00> -9115
01> -11369
00> -9127
01> -11391
00> -9146
01> -11415
00> -9141
01> -11403
00> -9121
01> -11366
00> -9113
01> -11364
00> -9128
01> -11384
00> -9134
01> -11411
00> -9136
01> -11399
00> -9122
01> -11364
00> -9118
01> -11357
00> -9130
01> -11387
00> -9142
01> -11417
00> -9132
01> -11396
00> -9111
01> -11354
00> -9102
01> -11341
00> -9120
01> -11380
00> -9132
01> -11401
00> -9131
01> -11391
00> -9123
01> -11356
00> -9119
01> -11347
00> -9134
01> -11374
00> -9139
01> -11397
00> -9138
01> -11382
00> -9121
01> -11344
00> -9114
01> -11335
00> -9120
01> -11358
00> -9136
01> -11388
00> -9124
01> -11372
00> -9101
01> -11344
00> -9101
01> -11331
00> -9115
01> -11356
00> -9127
01> -11389
00> -9112
01> -11368
00> -9095
01> -11331
00> -9096
01> -11317
00> -9105
01> -11345
00> -9125
01> -11370
00> -9136
01> -11366
00> -9112
01> -11331
00> -9103
01> -11319
00> -9112
01> -11350
00> -9129
01> -11375
00> -9121
01> -11357
00> -9107
01> -11322
00> -9103
01> -11306
00> -9111
01> -11326
00> -9128
01> -11348
00> -9119
01> -11339
00> -9109
01> -11309
00> -9109
01> -11311
00> -9124
01> -11352
00> -9145
01> -11372
00> -9134
01> -11344
00> -9106
01> -11303
00> -9102
01> -11291
00> -9119
01> -11322
00> -9133
01> -11374
00> -9133
01> -11373
00> -9118
01> -11324
00> -9106
01> -11309
00> -9121
01> -11338
00> -9137
01> -11370
00> -9131
01> -11354
00> -9117
01> -11309
00> -9115
01> -11291
00> -9124
01> -11318
00> -9143
01> -11365
00> -9148
01> -11377
00> -9128
01> -11339
00> -9111
01> -11304
00> -9126
01> -11314
00> -9139
01> -11345
00> -9136
01> -11340
00> -9112
01> -11316
00> -9110
01> -11307
00> -9124
01> -11316
00> -9139
01> -11337
00> -9130
01> -11323
00> -9112
01> -11301
00> -9115
01> -11292
00> -9127
01> -11316
00> -9133
01> -11348
00> -9134
01> -11345
00> -9118
01> -11308
00> -9112
01> -11287
00> -9121
01> -11319
00> -9139
01> -11347
00> -9137
01> -11327
00> -9119
01> -11290
00> -9102
01> -11282
00> -9124
01> -11319
00> -9145
01> -11352
00> -9138
01> -11342
00> -9112
01> -11294
00> -9109
01> -11280
00> -9127
01> -11312
00> -9139
01> -11336
00> -9132
01> -11326
00> -9122
01> -11296
00> -9124
01> -11292
00> -9135
01> -11324
00> -9151
01> -11348
00> -9146
01> -11334
00> -9119
01> -11294
00> -9107
01> -11284
00> -9119
01> -11305
00> -9132
01> -11336
00> -9128
01> -11326
00> -9115
01> -11289
00> -9109
01> -11273
00> -9122
01> -11294
00> -9134
01> -11319
00> -9127
01> -11306
00> -9120
01> -11274
00> -9121
01> -11274
00> -9136
01> -11311
00> -9152
01> -11346
00> -9147
01> -11329
00> -9126
01> -11290
00> -9109
01> -11276
00> -9119
01> -11287
00> -9132
01> -11311
00> -9127
01> -11300
00> -9109
01> -11259
00> -9096
01> -11247
00> -9121
01> -11287
00> -9137
01> -11320
00> -9133
01> -11318
00> -9119
01> -11286
00> -9114
01> -11266
00> -9129
01> -11286
00> -9147
01> -11320
