# SEGGER J-Link RTT Viewer V6.62 Terminal Log File
# Compiled: 16:34:01 on Jan 24 2020
# Logging started @ 07 Jun 2024 21:11:31

00> -9732
01> -13009
00> -9736
01> -13024
00> -9729
01> -13011
00> -9724
01> -12989
00> -9731
01> -12979
00> -9734
01> -12996
00> -9743
01> -13024
00> -9739
01> -13018
00> -9725
01> -12987
00> -9715
01> -12977
00> -9712
01> -12988
00> -9719
01> -12996
00> -9717
01> -12992
00> -9702
01> -12968
00> -9687
01> -12946
00> -9680
01> -12939
00> -9674
01> -12937
00> -9656
01> -12902
00> -9607
01> -12827
00> -9565
01> -12764
00> -9558
01> -12762
00> -9556
01> -12763
00> -9524
01> -12712
00> -9477
01> -12629
00> -9440
01> -12572
00> -9418
01> -12557
00> -9400
01> -12548
00> -9373
01> -12514
00> -9356
01> -12482
00> -9347
01> -12469
00> -9355
01> -12492
00> -9354
01> -12504
00> -9347
01> -12491
00> -9332
01> -12454
00> -9322
01> -12447
00> -9342
01> -12490
00> -9353
01> -12510
00> -9345
01> -12492
00> -9328
01> -12456
00> -9326
01> -12449
00> -9339
01> -12487
00> -9365
01> -12538
00> -9355
01> -12526
00> -9346
01> -12504
00> -9336
01> -12482
00> -9336
01> -12477
00> -9352
01> -12503
00> -9363
01> -12525
00> -9346
01> -12494
00> -9331
01> -12469
00> -9345
01> -12497
00> -9367
01> -12546
00> -9363
01> -12544
00> -9340
01> -12501
00> -9356
01> -12529
00> -9366
01> -12552
00> -9378
01> -12569
00> -9372
01> -12562
00> -9361
01> -12548
00> -9359
01> -12542
00> -9374
01> -12558
00> -9376
01> -12564
00> -9378
01> -12561
00> -9371
01> -12545
00> -9371
01> -12542
00> -9372
01> -12551
00> -9370
01> -12555
00> -9365
01> -12543
00> -9366
01> -12535
00> -9365
01> -12530
00> -9368
01> -12545
00> -9379
01> -12565
00> -9384
01> -12572
00> -9369
01> -12551
00> -9365
01> -12545
00> -9371
01> -12549
00> -9384
01> -12564
00> -9367
01> -12537
00> -9365
01> -12530
00> -9367
01> -12537
01> 
00> -9379
01> -12564
00> -9399
01> -12594
00> -9394
01> -12587
00> -9381
01> -12562
00> -9371
01> -12541
00> -9374
01> -12547
00> -9386
01> -12570
00> -9391
01> -12579
00> -9379
01> -12553
00> -9376
01> -12547
00> -9389
01> -12580
00> -9397
01> -12591
00> -9396
01> -12585
00> -9389
01> -12571
00> -9377
01> -12552
00> -9384
01> -12564
00> -9395
01> -12581
00> -9397
01> -12580
00> -9391
01> -12562
00> -9391
01> -12551
00> -9386
01> -12560
00> -9401
01> -12587
00> -9399
01> -12573
00> -9387
01> -12555
00> -9387
01> -12553
00> -9392
01> -12568
00> -9404
01> -12587
00> -9396
01> -12585
00> -9387
01> -12567
00> -9384
01> -12554
00> -9386
01> -12560
00> -9391
01> -12576
00> -9389
01> -12571
00> -9382
01> -12551
00> -9388
01> -12550
00> -9404
01> -12572
00> -9409
01> -12588
00> -9408
01> -12590
00> -9402
01> -12576
00> -9404
01> -12575
00> -9412
01> -12592
00> -9420
01> -12608
00> -9421
01> -12615
00> -9412
01> -12604
00> -9414
01> -12592
00> -9414
01> -12598
00> -9414
01> -12601
00> -9421
01> -12600
00> -9414
01> -12577
00> -9406
01> -12569
00> -9414
01> -12584
00> -9430
01> -12617
00> -9431
01> -12623
00> -9421
01> -12601
00> -9416
01> -12589
00> -9422
01> -12611
00> -9426
01> -12631
00> -9427
01> -12626
00> -9413
01> -12599
00> -9402
01> -12577
00> -9411
01> -12594
00> -9420
01> -12612
00> -9417
01> -12609
00> -9409
01> -12596
00> -9406
01> -12586
00> -9411
01> -12600
00> -9422
01> -12628
00> -9425
01> -12631
00> -9424
01> -12616
00> -9431
01> -12614
00> -9435
01> -12624
00> -9432
01> -12632
00> -9422
01> -12617
00> -9409
01> -12589
00> -9401
01> -12576
00> -9403
01> -12596
00> -9421
01> -12631
00> -9433
01> -12643
00> -9420
01> -12616
00> -9404
01> -12589
00> -9399
01> -12601
00> -9408
01> -12626
00> -9411
01> -12614
00> -9397
01> -12587
00> -9390
01> -12580
00> -9394
01> -12592
00> -9402
01> -12611
00> -9404
01> -12614
00> -9398
01> -12593
00> -9393
01> -12586
00> -9391
01> -12597
00> -9399
01> -12619
00> -9403
01> -12615
00> -9394
01> -12593
00> -9387
01> -12576
00> -9387
01> -12583
00> -9393
01> -12594
00> -9392
01> -12588
00> -9378
01> -12562
00> -9373
01> -12546
00> -9377
01> -12557
00> -9382
01> -12575
00> -9377
01> -12565
00> -9355
01> -12532
00> -9346
01> -12508
00> -9347
01> -12516
00> -9349
01> -12537
00> -9347
01> -12540
00> -9344
01> -12527
00> -9337
01> -12505
00> -9337
01> -12514
00> -9337
01> -12526
00> -9332
01> -12524
00> -9327
01> -12509
00> -9321
01> -12501
00> -9322
01> -12505
00> -9338
01> -12514
00> -9347
01> -12516
00> -9335
01> -12487
00> -9334
01> -12467
00> -9342
01> -12472
00> -9327
01> -12462
00> -9314
01> -12438
00> -9323
01> -12412
00> -9322
01> -12388
00> -9309
01> -12366
00> -9284
01> -12328
00> -9236
01> -12256
00> -9216
01> -12184
00> -9196
01> -12124
00> -9159
01> -12074
00> -9129
01> -12023
00> -9096
01> -11941
00> -9032
01> -11826
00> -9004
01> -11759
00> -8991
00> -8024
01> -32864
00> -8022
01> -32866
00> -8084
01> -32956
00> -8107
01> -32991
00> -8068
01> -32942
00> -8019
01> -32876
00> -8021
01> -32876
00> -8076
01> -32960
00> -8085
01> -32986
00> -8051
01> -32936
00> -8012
01> -32876
00> -8011
01> -32870
00> -8059
01> -32949
00> -8069
01> -32969
00> -8034
01> -32914
00> -7995
01> -32853
00> -7989
01> -32850
00> -8044
01> -32932
00> -8065
01> -32958
00> -8031
01> -32905
00> -7986
01> -32839
00> -7979
01> -32833
00> -8041
01> -32919
00> -8056
01> -32947
00> -8017
01> -32891
00> -7972
01> -32828
00> -7969
01> -32821
00> -8027
01> -32904
00> -8044
01> -32936
00> -8016
01> -32888
00> -7972
01> -32829
00> -7964
01> -32822
00> -8021
01> -32906
00> -8034
01> -32931
00> -7999
01> -32877
00> -7959
01> -32817
00> -7953
01> -32811
00> -8006
01> -32899
00> -8024
01> -32935
00> -7991
01> -32881
00> -7944
01> -32809
00> -7940
01> -32797
00> -7996
01> -32886
00> -8010
01> -32920
00> -7970
01> -32863
00> -7924
01> -32796
00> -7922
01> -32791
00> -7979
01> -32876
00> -7994
01> -32908
00> -7961
01> -32860
00> -7923
01> -32794
00> -7920
01> -32787
00> -7972
01> -32867
00> -7989
01> -32900
00> -7951
01> -32856
00> -7906
01> -32798
00> -7902
01> -32789
00> -7954
01> -32866
00> -7971
01> -32899
00> -7936
01> -32851
00> -7889
01> -32786
00> -7884
01> -32773
00> -7934
01> -32851
00> -7955
01> -32884
00> -7919
01> -32834
00> -7880
01> -32776
00> -7877
01> -32771
00> -7932
01> -32856
00> -7951
01> -32887
00> -7912
01> -32833
00> -7865
01> -32766
00> -7852
01> -32747
00> -7896
01> -32818
00> -7919
01> -32844
00> -7882
01> -32789
00> -7830
01> -32707
00> -7809
01> -32675
00> -7854
01> -32724
00> -7877
01> -32739
00> -7843
01> -32689
00> -7800
01> -32622
00> -7787
01> -32606
00> -7822
01> -32668
00> -7827
01> -32681
00> -7797
01> -32627
00> -7764
01> -32574
00> -7760
01> -32572
00> -7813
01> -32653
00> -7834
01> -32693
00> -7806
01> -32652
00> -7765
01> -32589
00> -7759
01> -32584
00> -7808
01> -32662
00> -7826
01> -32695
00> -7792
01> -32648
00> -7749
01> -32585
00> -7747
01> -32579
00> -7800
01> -32665
00> -7833
01> -32712
00> -7806
01> -32672
00> -7754
01> -32606
00> -7741
01> -32584
00> -7786
01> -32648
00> -7810
01> -32686
00> -7777
01> -32646
00> -7734
01> -32586
00> -7736
01> -32581
00> -7788
01> -32659
00> -7810
01> -32702
00> -7782
01> -32664
00> -7734
01> -32605
00> -7746
01> -32628
00> -7794
01> -32704
00> -7805
01> -32717
00> -7779
01> -32671
00> -7737
01> -32618
00> -7725
01> -32599
00> -7766
01> -32667
00> -7787
01> -32701
00> -7762
01> -32661
00> -7727
01> -32602
00> -7716
01> -32583
00> -7762
01> -32654
00> -7784
01> -32696
00> -7759
01> -32659
00> -7717
01> -32600
00> -7699
01> -32573
00> -7749
01> -32646
00> -7769
01> -32682
00> -7741
01> -32641
00> -7681
01> -32562
00> -7666
01> -32528
00> -7706
01> -32594
00> -7729
01> -32634
00> -7714
01> -32596
00> -7675
01> -32526
00> -7653
01> -32494
00> -7687
01> -32546
00> -7692
01> -32557
00> -7641
01> -32490
00> -7589
01> -32407
00> -7569
01> -32365
00> -7609
01> -32418
00> -7616
01> -32444
00> -7587
01> -32404
00> -7562
01> -32359
00> -7553
01> -32350
00> -7595
01> -32424
00> -7600
01> -32444
00> -7574
01> -32404
00> -7550
01> -32367
00> -7549
01> -32359
00> -7591
01> -32429
00> -7611
01> -32466
00> -7588
01> -32425
00> -7539
01> -32354
00> -7515
01> -32323
00> -7560
01> -32393
00> -7596
01> -32441
00> -7575
01> -32409
00> -7539
01> -32356
00> -7519
01> -32328
00> -7569
01> -32401
00> -7588
01> -32436
00> -7574
01> -32416
00> -7531
01> -32348
00> -7517
01> -32322
00> -7569
01> -32396
00> -7587
01> -32438
00> -7557
01> -32394
00> -7514
01> -32329
00> -7505
01> -32305
00> -7550
01> -32376
00> -7570
01> -32414
00> -7538
01> -32369
00> -7496
01> -32307
00> -7493
01> -32296
00> -7545
01> -32374
00> -7566
01> -32411
00> -7537
01> -32365
00> -7494
01> -32298
00> -7481
01> -32271
00> -7529
01> -32344
00> -7557
01> -32387
00> -7528
01> -32340
00> -7490
01> -32286
00> -7477
01> -32262
00> -7525
01> -32334
00> -7553
01> -32377
00> -7519
01> -32326
00> -7470
01> -32255
00> -7454
01> -32226
00> -7512
01> -32311
00> -7547
01> -32366
00> -7517
01> -32314
00> -7476
01> -32256
00> -7471
01> -32234
00> -7521
01> -32304
00> -7542
01> -32344
00> -7504
01> -32293
00> -7464
01> -32227
00> -7458
01> -32206
00> -7514
01> -32289
00> -7545
01> -32337
00> -7512
01> -32289
00> -7457
01> -32216
00> -7441
01> -32190
00> -7506
01> -32280
00> -7541
01> -32334
00> -7505
01> -32286
00> -7457
01> -32215
00> -7434
01> -32178
00> -7496
01> -32264
00> -7534
01> -32324
00> -7503
01> -32275
00> -7447
01> -32191
00> -7429
01> -32156
00> -7494
01> -32251
00> -7530
01> -32309
00> -7496
01> -32256
00> -7446
01> -32181
00> -7421
01> -32146
00> -7476
01> -32231
00> -7512
01> -32292
00> -7484
01> -32240
00> -7434
01> -32156
00> -7421
01> -32127
00> -7484
01> -32222
00> -7507
01> -32270
00> -7459
01> -32207
00> -7409
01> -32135
00> -7411
01> -32112
00> -7474
01> -32199
00> -7503
01> -32255
00> -7468
01> -32209
00> -7423
01> -32137
00> -7402
01> -32102
00> -7453
01> -32186
00> -7481
01> -32241
00> -7451
01> -32186
00> -7410
01> -32120
00> -7389
01> -32092
00> -7444
01> -32168
00> -7449
01> -32192
00> -7386
01> -32112
00> -7341
01> -32030
00> -7324
01> -31978
00> -7329
01> -32004
00> -7346
01> -32021
00> -7291
01> -31921
00> -7209
01> -31772
00> -7125
01> -31652
00> -7131
01> -31656
00> -7119
01> -31640
00> -7044
01> -31514
00> -6971
01> -31373
00> -6919
01> -31278
00> -6944
01> -31315
00> -6956
01> -31340
00> -6910
01> -31267
00> -6849
01> -31173
00> -6814
01> -31121
00> -6875
01> -31207
00> -6919
01> -31271
00> -6883
01> -31222
00> -6826
01> -31147
00> -6813
01> -31136
00> -6884
01> -31239
00> -6928
01> -31305
00> -6904
01> -31268
00> -6867
01> -31210
00> -6867
01> -31199
00> -6945
01> -31317
00> -7001
01> -31414
00> -6990
01> -31394
00> -6963
01> -31346
00> -6964
01> -31357
00> -7052
01> -31491
00> -7112
01> -31585
00> -7094
01> -31564
00> -7059
01> -31517
00> -7047
01> -31510
00> -7120
01> -31626
00> -7181

00> -7174
01> -31708
00> -7146
01> -31661
00> -7144
01> -31659
00> -7227
01> -31790
00> -7278
01> -31881
00> -7261
01> -31850
00> -7219
01> -31784
00> -7201
01> -31757
00> -7270
01> -31862
00> -7328
01> -31951
00> -7312
01> -31920
00> -7267
01> -31851
00> -7255
01> -31831
00> -7321
01> -31946
00> -7371
01> -32027
00> -7340
01> -31984
00> -7287
01> -31910
00> -7269
01> -31878
00> -7339
01> -31978
00> -7386
01> -32047
00> -7352
01> -31996
00> -7306
01> -31928
00> -7293
01> -31909
00> -7356
01> -32002
00> -7395
01> -32068
00> -7351
01> -32017
00> -7311
01> -31942
00> -7305
01> -31917
00> -7374
01> -32025
00> -7421
01> -32103
00> -7390
01> -32057
00> -7332
01> -31978
00> -7304
01> -31932
00> -7369
01> -32026
00> -7411
01> -32089
00> -7376
01> -32037
00> -7333
01> -31968
00> -7317
01> -31937
00> -7375
01> -32019
00> -7414
01> -32080
00> -7381
01> -32031
00> -7330
01> -31949
00> -7310
01> -31906
00> -7365
01> -31997
00> -7408
01> -32077
00> -7377
01> -32032
00> -7324
01> -31947
00> -7297
01> -31901
00> -7348
01> -31979
00> -7386
01> -32043
00> -7363
01> -32005
00> -7321
01> -31936
00> -7294
01> -31891
00> -7351
01> -31974
00> -7392
01> -32043
00> -7359
01> -31989
00> -7296
01> -31899
00> -7271
01> -31849
00> -7331
01> -31941
00> -7383
01> -32022
00> -7353
01> -31971
00> -7297
01> -31885
00> -7268
01> -31842
00> -7326
01> -31924
00> -7367
01> -31987
00> -7342
01> -31944
00> -7289
01> -31856
00> -7257
01> -31810
00> -7309
01> -31894
00> -7353
01> -31966
00> -7329
01> -31926
00> -7287
01> -31855
00> -7259
01> -31811
00> -7306
01> -31882
00> -7353
01> -31955
00> -7331
01> -31917
00> -7289
01> -31849
00> -7259
01> -31797
00> -7308
01> -31871
00> -7352
01> -31943
00> -7317
01> -31898
00> -7263
01> -31816
00> -7247
01> -31779
00> -7303
01> -31870
00> -7344
01> -31941
00> -7307
01> -31886
00> -7253
01> -31799
00> -7229
01> -31756
00> -7282
01> -31837
00> -7329
01> -31917
00> -7304
01> -31881
00> -7257
01> -31801
00> -7227
01> -31748
00> -7277
01> -31822
00> -7319
01> -31896
00> -7290
01> -31846
00> -7236
01> -31761
00> -7204
01> -31714
00> -7257
01> -31796
00> -7309
01> -31876
00> -7284
01> -31836
00> -7225
01> -31746
00> -7188
01> -31688
00> -7242
01> -31774
00> -7287
01> -31852
00> -7259
01> -31809
00> -7209
01> -31728
00> -7179
01> -31677
00> -7229
01> -31759
00> -7281
01> -31836
00> -7254
01> -31788
00> -7202
01> -31702
00> -7171
01> -31660
00> -7223
01> -31741
00> -7266
01> -31812
00> -7239
01> -31769
00> -7187
01> -31688
00> -7154
01> -31636
00> -7210
01> -31716
00> -7254
01> -31786
00> -7222
01> -31737
00> -7167
01> -31649
00> -7135
01> -31602
00> -7193
01> -31692
00> -7247
01> -31772
00> -7219
01> -31723
00> -7164
01> -31633
00> -7127
01> -31571
00> -7180
01> -31647
00> -7221
01> -31719
00> -7192
01> -31674
00> -7142
01> -31595
00> -7116
01> -31548
00> -7172
01> -31633
00> -7225
01> -31714
00> -7197
01> -31669
00> -7143
01> -31591
00> -7113
01> -31546
00> -7171
01> -31637
00> -7230
01> -31727
00> -7208
01> -31697
00> -7167
01> -31631
00> -7147
01> -31588
00> -7207
01> -31674
00> -7259
01> -31756
00> -7234
01> -31712
00> -7179
01> -31631
00> -7146
01> -31577
00> -7204
01> -31658
00> -7251
01> -31741
00> -7216
01> -31691
00> -7160
01> -31601
00> -7131
01> -31551
00> -7187
01> -31636
00> -7234
01> -31709
00> -7201
01> -31648
00> -7144
01> -31566
00> -7109
01> -31513
00> -7162
01> -31591
00> -7218
01> -31671
00> -7189
01> -31633
00> -7136
01> -31552
00> -7106
01> -31499
00> -7160
01> -31579
00> -7209
01> -31661
00> -7175
01> -31614
00> -7122
01> -31528
00> -7090
01> -31477
00> -7133
01> -31550
00> -7186
01> -31637
00> -7167
01> -31605
00> -7110
01> -31522
00> -7078
01> -31470
00> -7135
01> -31547
00> -7189
01> -31632
00> -7161
01> -31587
00> -7106
01> -31498
00> -7069
01> -31442
00> -7119
01> -31517
00> -7166
01> -31598
00> -7140
01> -31556
00> -7091
01> -31482
00> -7059
01> -31436
00> -7121
01> -31515
00> -7175
01> -31597
00> -7144
01> -31552
00> -7092
01> -31458
00> -7051
01> -31401
00> -7106
01> -31479
00> -7158
01> -31565
00> -7129
01> -31524
00> -7069
01> -31437
00> -7038
01> -31383
00> -7096
01> -31467
00> -7154
01> -31554
00> -7127
01> -31517
00> -7074
01> -31436
00> -7042
01> -31377
00> -7089
01> -31450
00> -7140
01> -31530
00> -7106
01> -31479
00> -7055
01> -31400
00> -7024
01> -31354
00> -7079
01> -31429
00> -7125
01> -31504
00> -7099
01> -31463
00> -7050
01> -31387
00> -7019
01> -31337
00> -7067
01> -31404
00> -7120
01> -31493
00> -7106
01> -31464
00> -7065
01> -31389
00> -7034
01> -31337
00> -7081
01> -31407
00> -7124
01> -31481
00> -7097
01> -31436
00> -7048
01> -31352
00> -7009
01> -31299
00> -7059
01> -31381
00> -7122
01> -31473
00> -7097
01> -31434
00> -7038
01> -31340
00> -7004
01> -31277
00> -7053
01> -31349
00> -7107
01> -31431
00> -7084
01> -31392
00> -7029
01> -31309
00> -6990
01> -31256
00> -7041
01> -31339
00> -7099
01> -31422
00> -7062
01> -31367
00> -6996
01> -31266
00> -6957
01> -31197
00> -7004
01> -31267
00> -7060
01> -31354
00> -7037
01> -31309
00> -6986
01> -31228
00> -6951
01> -31176
00> -7001
01> -31251
00> -7054
01> -31342
00> -7029
01> -31296
00> -6972
01> -31209
00> -6934
01> -31152
00> -6986
01> -31226
00> -7038
01> -31319
00> -7010
01> -31276
00> -6959
01> -31197
00> -6928
01> -31146
00> -6982
01> -31219
00> -7037
01> -31302
00> -7018
01> -31268
00> -6967
01> -31194
00> -6931
01> -31138
00> -6973
01> -31202
00> -7022
01> -31275
00> -6999
01> -31243
00> -6954
01> -31168
00> -6924
01> -31114
00> -6974
01> -31189
00> -7033
01> -31281
00> -7004
01> -31241
00> -6939
01> -31145
00> -6897
01> -31079
00> -6951
01> -31148
00> -7014
01> -31244
00> -6992
01> -31215
00> -6941
01> -31134
00> -6901
01> -31071
00> -6951
01> -31151
00> -7015
01> -31254
00> -6991
01> -31215
00> -6932
01> -31123
00> -6889
01> -31059
00> -6942
01> -31135
00> -7004
01> -31221
00> -6979
01> -31183
00> -6932
01> -31107
00> -6894
01> -31050
00> -6946
01> -31126
00> -6999
01> -31210
00> -6958
01> -31157
00> -6903
01> -31072
00> -6863
01> -31009
00> -6897
01> -31054
00> -6933
01> -31117
00> -6898
01> -31066
00> -6835
01> -30964
00> -6780
01> -30877
00> -6818
01> -30927
00> -6874
01> -31014
00> -6852
01> -30972
00> -6794
01> -30887
00> -6751
01> -30829
00> -6795
01> -30894
00> -6846
01> -30972
00> -6817
01> -30925
00> -6757
01> -30838
00> -6717
01> -30775
00> -6766
01> -30841
00> -6824
01> -30937
00> -6800
01> -30907
00> -6748
01> -30829
00> -6709
01> -30762
00> -6760
01> -30836
00> -6823
01> -30941
00> -6801
01> -30904
00> -6745
01> -30813
00> -6699
01> -30743
00> -6747
01> -30811
00> -6814
01> -30916
00> -6792
01> -30884
00> -6737
01> -30799
00> -6704
01> -30746
00> -6756
01> -30817
00> -6811
01> -30907
00> -6787
01> -30872
00> -6737
01> -30793
00> -6698
01> -30740
00> -6743
01> -30809
00> -6794
01> -30891
00> -6775
01> -30864
00> -6733
01> -30797
00> -6705
01> -30747
00> -6751
01> -30810
00> -6802
01> -30897
00> -6776
01> -30858
00> -6722
01> -30772
00> -6680
01> -30712
00> -6724
01> -30772
00> -6781
01> -30864
00> -6768
01> -30842
00> -6719
01> -30771
00> -6681
01> -30716
00> -6720
01> -30769
00> -6774
01> -30850
00> -6751
01> -30813
00> -6696
01> -30735
00> -6664
01> -30684
00> -6706
01> -30740
00> -6755
01> -30827
00> -6742
01> -30801
00> -6699
01> -30736
00> -6671
01> -30690
00> -6710
01> -30747
00> -6757
01> -30830
00> -6744
01> -30806
00> -6701
01> -30739
00> -6666
01> -30676
00> -6702
01> -30731
00> -6760
01> -30819
00> -6742
01> -30794
00> -6701
01> -30727
00> -6670
01> -30682
00> -6705
01> -30735
00> -6746
01> -30801
00> -6732
01> -30774
00> -6694
01> -30712
00> -6669
01> -30667
00> -6697
01> -30710
00> -6742
01> -30775
00> -6700
01> -30741
00> -6623
01> -30646
00> -6604
01> -30582
00> -6623
01> -30605
00> -6631
01> -30638
00> -6620
01> -30590
00> -6530
01> -30466
00> -6459
01> -30349
00> -6463
01> -30322
00> -6464
01> -30319
00> -6409
01> -30216
00> -6331
01> -30083
00> -6258
01> -29957
00> -6238
01> -29926
00> -6222
01> -29903
00> -6183
01> -29818
00> -6123
01> -29722
00> -6071
01> -29653
00> -6082
01> -29671
00> -6116
01> -29721
00> -6097
01> -29688
00> -6062
01> -29630
00> -6045
01> -29601
00> -6077
01> -29649
00> -6129
01> -29733
00> -6122
01> -29734
00> -6099
01> -29707
00> -6090
01> -29699
00> -6141
01> -29774
00> -6200
01> -29864
00> -6214
01> -29882
00> -6198
01> -29859
00> -6188
01> -29846
00> -6227
01> -29911
00> -6281
01> -29998
00> -6300
01> -30027
00> -6301
01> -30019
00> -6293
01> -30004
00> -6324
01> -30061
00> -6378
01> -30144
00> -6377
01> -30144
00> -6357
01> -30123
00> -6353
01> -30117
00> -6403
01> -30181
00> -6461
01> -30267
00> -6462
01> -30269
00> -6436
01> -30237
00> -6414
01> -30220
00> -6444
01> -30271
00> -6496
01> -30347
00> -6499
01> -30340
00> -6481
01> -30308
00> -6464
01> -30279
00> -6491
01> -30322
00> -6531
01> -30384
00> -6523
01> -30374
00> -6499
01> -30336
00> -6487
01> -30311
00> -6507
01> -30342
00> -6541
01> -30400
00> -6532
01> -30392
00> -6511
01> -30354
00> -6495
01> -30329
00> -6512
01> -30354
00> -6539
01> -30401
00> -6531
01> -30391
00> -6506
01> -30354
00> -6505
01> -30341
00> -6531
01> -30372
00> -6554
01> -30426
00> -6541
01> -30416
00> -6512
01> -30375
00> -6486
01> -30334
00> -6508
01> -30369
00> -6540
01> -30422
00> -6536
01> -30415
00> -6511
01> -30376
00> -6494
01> -30345
00> -6514
01> -30374
00> -6541
01> -30416
00> -6538
01> -30411
00> -6507
01> -30363
00> -6470
01> -30311
00> -6488
01> -30337
00> -6526
01> -30394
00> -6525
01> -30387
00> -6500
01> -30345
00> -6478
01> -30310
00> -6491
01> -30332
00> -6515
01> -30374
00> -6514
01> -30371
00> -6496
01> -30343
00> -6475
01> -30306
00> -6489
01> -30323
00> -6519
01> -30374
00> -6504
01> -30358
00> -6472
01> -30309
00> -6448
01> -30270
00> -6456
01> -30291
00> -6493
01> -30339
00> -6487
01> -30327
00> -6462
01> -30293
00> -6435
01> -30254
00> -6457
01> -30268
00> -6488
01> -30314
00> -6477
01> -30297
00> -6441
01> -30251
00> -6414
01> -30209
00> -6432
01> -30229
00> -6471
01> -30279
00> -6469
01> -30279
00> -6442
01> -30236
00> -6424
01> -30202
00> -6427
01> -30211
00> -6453
01> -30254
00> -6452
01> -30244
00> -6424
01> -30207
00> -6406
01> -30186
00> -6426
01> -30215
00> -6452
01> -30260
00> -6447
01> -30250
00> -6419
01> -30215
00> -6390
01> -30166
00> -6406
01> -30190
00> -6442
01> -30239
00> -6432
01> -30221
00> -6414
01> -30185
00> -6398
01> -30157
00> -6409
01> -30169
00> -6441
01> -30217
00> -6437
01> -30217
00> -6415
01> -30186
00> -6388
01> -30142
00> -6398
01> -30159
00> -6423
01> -30208
00> -6416
01> -30184
00> -6402
01> -30151
00> -6386
01> -30127
00> -6397
01> -30151
00> -6433

00> -6436
01> -30201
00> -6391
01> -30142
00> -6351
01> -30088
00> -6371
01> -30109
00> -6402
01> -30160
00> -6392
01> -30151
00> -6381
01> -30120
00> -6361
01> -30086
00> -6370
01> -30099
00> -6392
01> -30142
00> -6396
01> -30144
00> -6371
01> -30089
00> -6337
01> -30036
00> -6344
01> -30053
00> -6387
01> -30114
00> -6381
01> -30103
00> -6354
01> -30062
00> -6332
01> -30034
00> -6348
01> -30059
00> -6376
01> -30096
00> -6371
01> -30087
00> -6343
01> -30052
00> -6316
01> -30012
00> -6331
01> -30027
00> -6370
01> -30083
00> -6370
01> -30079
00> -6342
01> -30040
00> -6322
01> -30006
00> -6335
01> -30019
00> -6364
01> -30065
00> -6358
01> -30064
00> -6332
01> -30017
00> -6299
01> -29972
00> -6310
01> -29985
00> -6346
01> -30038
00> -6345
01> -30032
00> -6322
01> -29989
00> -6300
01> -29954
00> -6316
01> -29975
00> -6352
01> -30028
00> -6351
01> -30021
00> -6325
01> -29979
00> -6301
01> -29941
00> -6321
01> -29961
00> -6361
01> -30012
00> -6362
01> -30014
00> -6332
01> -29967
00> -6305
01> -29924
00> -6309
01> -29939
00> -6341
01> -29994
00> -6344
01> -29990
00> -6322
01> -29953
00> -6303
01> -29923
00> -6315
01> -29940
00> -6339
01> -29980
00> -6332
01> -29965
00> -6304
01> -29920
00> -6283
01> -29891
00> -6296
01> -29908
00> -6321
01> -29956
00> -6315
01> -29949
00> -6282
01> -29899
00> -6243
01> -29845
00> -6215
01> -29820
00> -6245
01> -29847
00> -6251
01> -29821
00> -6170
01> -29712
00> -6096
01> -29596
00> -6072
01> -29539
00> -6044
01> -29490
00> -6002
01> -29394
00> -5953
01> -29290
00> -5879
01> -29172
00> -5829
01> -29097
00> -5814
01> -29068
00> -5790
01> -29007
00> -5730
01> -28917
00> -5672
01> -28832
00> -5652
01> -28804
00> -5661
01> -28815
00> -5652
01> -28801
00> -5612
01> -28749
00> -5569
01> -28681
00> -5579
01> -28691
00> -5624
01> -28747
00> -5627
01> -28747
00> -5602
01> -28702
00> -5579
01> -28672
00> -5588
01> -28694
00> -5621
01> -28759
00> -5635
01> -28785
00> -5631
01> -28784
00> -5622
01> -28780
00> -5648
01> -28821
00> -5696
01> -28901
00> -5711
01> -28935
00> -5712
01> -28945
00> -5718
01> -28955
00> -5756
01> -29001
00> -5812
01> -29085
00> -5832
01> -29118
00> -5834
01> -29117
00> -5836
01> -29118
00> -5859
01> -29165
00> -5909
01> -29245
00> -5933
01> -29275
00> -5926
01> -29264
00> -5924
01> -29260
00> -5957
01> -29297
00> -6004
01> -29361
00> -6017
01> -29383
00> -6011
01> -29370
00> -6001
01> -29361
00> -6028
01> -29404
00> -6074
01> -29475
00> -6086
01> -29487
00> -6072
01> -29469
00> -6061
01> -29452
00> -6086
01> -29486
00> -6126
01> -29551
00> -6132
01> -29566
00> -6117
01> -29546
00> -6099
01> -29522
00> -6112
01> -29542
00> -6146
01> -29596
00> -6152
01> -29600
00> -6142
01> -29576
00> -6133
01> -29560
00> -6151
01> -29582
00> -6182
01> -29639
00> -6181
01> -29647
00> -6167
01> -29617
00> -6154
01> -29589
00> -6166
01> -29603
00> -6197
01> -29647
00> -6197
01> -29649
00> -6186
01> -29619
00> -6167
01> -29594
00> -6178
01> -29612
00> -6216
01> -29667
00> -6219
01> -29678
00> -6197
01> -29649
00> -6178
01> -29622
00> -6188
01> -29637
00> -6218
01> -29682
00> -6222
01> -29681
00> -6209
01> -29653
00> -6197
01> -29628
00> -6199
01> -29641
00> -6221
01> -29687
00> -6221
01> -29682
00> -6207
01> -29642
00> -6187
01> -29613
00> -6202
01> -29632
00> -6232
01> -29683
00> -6231
01> -29682
00> -6205
01> -29641
00> -6179
01> -29597
00> -6184
01> -29602
00> -6215
01> -29657
00> -6216
01> -29671
00> -6197
01> -29642
00> -6175
01> -29604
00> -6182
01> -29609
00> -6218
01> -29663
00> -6223
01> -29667
00> -6199
01> -29629
00> -6167
01> -29586
00> -6172
01> -29597
00> -6202
01> -29647
00> -6211
01> -29653
00> -6194
01> -29626
00> -6177
01> -29592
00> -6185
01> -29595
00> -6216
01> -29640
00> -6217
01> -29640
00> -6201
01> -29617
00> -6174
01> -29585
00> -6179
01> -29601
00> -6220
01> -29653
00> -6222
01> -29653
00> -6199
01> -29616
00> -6177
01> -29582
00> -6184
01> -29589
00> -6215
01> -29649
00> -6221
01> -29661
00> -6202
01> -29624
00> -6182
01> -29584
00> -6184
01> -29587
00> -6211
01> -29629
00> -6209
01> -29630
00> -6187
01> -29598
00> -6164
01> -29558
00> -6163
01> -29562
00> -6189
01> -29606
00> -6192
01> -29606
00> -6177
01> -29585
00> -6158
01> -29552
00> -6166
01> -29566
00> -6197
01> -29614
00> -6205
01> -29627
00> -6182
01> -29599
00> -6157
01> -29560
00> -6162
01> -29567
00> -6199
01> -29620
00> -6204
01> -29626
00> -6179
01> -29588
00> -6152
01> -29551
00> -6157
01> -29561
00> -6190
01> -29616
00> -6192
01> -29626
00> -6172
01> -29595
00> -6147
01> -29569
00> -6147
01> -29576
00> -6174
01> -29616
00> -6169
01> -29617
00> -6151
01> -29592
00> -6139
01> -29570
00> -6156
01> -29594
00> -6200
01> -29663
00> -6204
01> -29680
00> -6184
01> -29647
00> -6164
01> -29614
00> -6171
01> -29627
00> -6199
01> -29675
00> -6196
01> -29689
00> -6177
01> -29661
00> -6161
01> -29641
00> -6166
01> -29661
00> -6194
01> -29715
00> -6192
01> -29719
00> -6173
01> -29693
00> -6152
01> -29662
00> -6167
01> -29686
00> -6201
01> -29746
00> -6193
01> -29754
00> -6171
01> -29726
00> -6150
01> -29696
00> -6159
01> -29711
00> -6186
01> -29764
00> -6194
01> -29774
00> -6177
01> -29754
00> -6157
01> -29728
00> -6162
01> -29736
00> -6190
01> -29783
00> -6192
01> -29792
00> -6170
01> -29766
00> -6145
01> -29736
00> -6147
01> -29747
00> -6173
01> -29801
00> -6171
01> -29811
00> -6157
01> -29784
00> -6139
01> -29762
00> -6135
01> -29779
00> -6162
01> -29837
00> -6172
01> -29860
00> -6157
01> -29843
00> -6136
01> -29808
00> -6132
01> -29807
00> -6155
01> -29860
00> -6153
01> -29874
00> -6139
01> -29854
00> -6117
01> -29832
00> -6129
01> -29855
00> -6159
01> -29916
00> -6162
01> -29932
00> -6144
01> -29915
00> -6112
01> -29894
00> -6114
01> -29902
00> -6144
01> -29954
00> -6146
01> -29972
00> -6129
01> -29962
00> -6111
01> -29945
00> -6115
01> -29963
00> -6142
01> -30024
00> -6146
01> -30036
00> -6125
01> -30017
00> -6094
01> -29994
00> -6092
01> -30015
00> -6124
01> -30072
00> -6127
01> -30100
00> -6113
01> -30099
00> -6099
01> -30080
00> -6101
01> -30094
00> -6132
01> -30155
00> -6134
01> -30174
00> -6115
01> -30153
00> -6096
01> -30135
00> -6099
01> -30153
00> -6118
01> -30216
00> -6119
01> -30242
00> -6104
01> -30228
00> -6086
01> -30218
00> -6087
01> -30239
00> -6116
01> -30293
00> -6119
01> -30317
00> -6099
01> -30305
00> -6074
01> -30287
00> -6074
01> -30303
00> -6102
01> -30371
00> -6107
01> -30402
00> -6088
01> -30390
00> -6067
01> -30375
00> -6074
01> -30404
00> -6102
01> -30467
00> -6109
01> -30498
00> -6088
01> -30491
00> -6071
01> -30478
00> -6077
01> -30499
00> -6101
01> -30557
00> -6101
01> -30584
00> -6082
01> -30574
00> -6063
01> -30563
00> -6062
01> -30586
00> -6092
01> -30649
00> -6092
01> -30678
00> -6073
01> -30658
00> -6050
01> -30644
00> -6047
01> -30671
00> -6083
01> -30747
00> -6092
01> -30780
00> -6074
01> -30775
00> -6048
01> -30762
00> -6044
01> -30779
00> -6070
01> -30841
00> -6072
01> -30866
00> -6048
01> -30858
00> -6019
01> -30844
00> -6017
01> -30868
00> -6043
01> -30932
00> -6049
01> -30958
00> -6020
01> -30934
00> -5982
01> -30909
00> -5976
01> -30922
00> -5997
01> -30985
00> -5995
01> -31009
00> -5977
01> -30991
00> -5959
01> -30976
00> -5955
01> -30997
00> -5981
01> -31071
00> -5988
01> -31107
00> -5974
01> -31114
00> -5960
01> -31111
00> -5959
01> -31127
00> -5981
01> -31186
00> -5989
01> -31223
00> -5969
01> -31224
00> -5951
01> -31215
00> -5949
01> -31240
00> -5982
01> -31317
00> -5992
01> -31350
00> -5972
01> -31342
00> -5950
01> -31325
00> -5949
01> -31339
00> -5979
01> -31414
00> -5987
01> -31457
00> -5971
01> -31451
00> -5944
01> -31431
00> -5947
01> -31452
00> -5982
01> -31524
00> -5991
01> -31553
00> -5967
01> -31548
00> -5944
01> -31540
00> -5944
01> -31561
00> -5977
01> -31637
00> -5985
01> -31676
00> -5971
01> -31669
00> -5950
01> -31657
00> -5954
01> -31675
00> -5986
01> -31746
00> -5996
01> -31784
00> -5975
01> -31778
00> -5952
01> -31766
00> -5953
01> -31785
00> -5986
01> -31854
00> -5996
01> -31887
00> -5972
01> -31874
00> -5944
01> -31851
00> -5946
01> -31866
00> -5975
01> -31931
00> -5979
01> -31966
00> -5961
01> -31959
00> -5938
01> -31945
00> -5941
01> -31963
00> -5970
01> -32032
00> -5982
01> -32067
00> -5966
01> -32056
00> -5946
01> -32039
00> -5945
01> -32056
00> -5973
01> -32121
00> -5979
01> -32150
00> -5961
01> -32133
00> -5938
01> -32114
00> -5941
01> -32135
00> -5972
01> -32196
00> -5981
01> -32230
00> -5967
01> -32231
00> -5939
01> -32212
00> -5927
01> -32219
00> -5952
01> -32284
00> -5960
01> -32316
00> -5945
01> -32296
00> -5929
01> -32281
00> -5935
01> -32303
00> -5962
01> -32362
00> -5971
01> -32393
00> -5955
01> -32389
00> -5935
01> -32379
00> -5940
01> -32407
00> -5971
01> -32473
00> -5974
01> -32504
00> -5951
01> -32489
00> -5921
01> -32464
00> -5921
01> -32477
00> -5958
01> -32548
00> -5968
01> -32580
00> -5952
01> -32572
00> -5927
01> -32552
00> -5922
01> -32558
00> -5950
01> -32610
00> -5953
01> -32632
00> -5926
01> -32607
00> -5904
01> -32586
00> -5911
01> -32604
00> -5944
01> -32676
00> -5947
01> -32699
00> -5931
01> -32686
00> -5907
01> -32668
00> -5897
01> -32674
00> -5929
01> -32736
00> -5939
01> -32771
00> -5922
01> -32756
00> -5896
01> -32740
00> -5896
01> -32757
00> -5922
01> -32812
00> -5931
01> -32835
00> -5916
01> -32822
00> -5899
01> -32801
00> -5902
01> -32812
00> -5937
01> -32872
00> -5943
01> -32897
00> -5922
01> -32881
00> -5894
01> -32860
00> -5897
01> -32872
00> -5929
01> -32934
00> -5935
01> -32957
00> -5907
01> -32934
00> -5882
01> -32899
00> -5879
01> -32896
00> -5909
01> -32955
00> -5921
01> -32983
00> -5904
01> -32967
00> -5877
01> -32944
00> -5875
01> -32954
00> -5906
01> -33021
00> -5911
01> -33046
00> -5887
01> -33019
00> -5858
01> -32990
00> -5845
01> -32986
00> -5861
01> -33025
00> -5849
01> -33019
00> -5800
01> -32957
00> -5779
01> -32907
00> -5746
01> -32862
00> -5719
01> -32856
00> -5677
01> -32813
00> -5636
01> -32737
00> -5577
01> -32639
00> -5534
01> -32567
00> -5522
01> -32556
00> -5488
01> -32511
00> -5441
01> -32429
00> -5397
01> -32361
00> -5374
01> -32324
00> -5378
01> -32342
00> -5378
01> -32339
00> -5361
01> -32305
00> -5338
01> -32272
00> -5330
01> -32272
00> -5365
01> -32333
00> -5384
01> -32379
00> -5379
01> -32375
00> -5366
01> -32368
00> -5375
01> -32389
00> -5424
01> -32471
00> -5450
01> -32523
00> -5443
01> -32530
00> -5438
01> -32534
00> -5447
01> -32559
00> -5497
01> -32639
00> -5519
01> -32690
00> -5512
01> -32694
00> -5507
01> -32698
00> -5518
01> -32727
00> -5562
01> -32802
00> -5592
01> -32855
00> -5592
01> -32864
00> -5579
01> -32857
00> -5585
01> -32881
00> -5629
01> -32955
00> -5652
01> -33001
00> -5647
01> -33004
00> -5640
01> -33000
00> -5649
01> -33023
00> -5684
01> -33097
00> -5709
01> -33145
00> -5701
01> -33151
00> -5692
01> -33148
00> -5700
01> -33166
00> -5738
01> -33245
00> -5759
01> -33291
00> -5751
01> -33287
00> -5732
01> -33265
00> -5732
01> -33279
00> -5775
01> -33354
00> -5797
01> -33396
00> -5790
01> -33392
00> -5774
01> -33377
00> -5779
01> -33386
00> -5809
01> -33438
00> -5817
01> -33459
00> -5797
01> -33436
00> -5781
01> -33416
00> -5786
01> -33433
00> -5820
01> -33496
00> -5836
01> -33534
00> -5819
01> -33522
00> -5797
01> -33494
00> -5793
01> -33502
00> -5830
01> -33562
00> -5848
01> -33594
00> -5826
01> -33574
00> -5807
01> -33551
00> -5806
01> -33559
00> -5837
01> -33611
00> -5853
01> -33642
00> -5839
01> -33627
00> -5817
01> -33602
00> -5819
01> -33610
00> -5849
01> -33671
00> -5862
01> -33706
00> -5849
01> -33691
00> -5826
01> -33664
00> -5817
01> -33656
00> -5851
01> -33704
00> -5865
01> -33726
00> -5847
01> -33709
00> -5822
01> -33678
00> -5816
01> -33673
00> -5844
01> -33717
00> -5854
01> -33741
00> -5836
01> -33721
00> -5815
01> -33694
00> -5809
01> -33692
00> -5837
01> -33744
00> -5850
01> -33777
00> -5842
01> -33764
00> -5820
01> -33734
00> -5811
01> -33726
00> -5844
01> -33776
00> -5859
01> -33804
00> -5844
01> -33787
00> -5824
01> -33762
00> -5816
01> -33764
00> -5848
01> -33815
00> -5861
01> -33839
00> -5841
01> -33818
00> -5818
01> -33791
00> -5812
01> -33791
00> -5846
01> -33841
00> -5859
01> -33871
00> -5844
01> -33849
00> -5817
01> -33819
00> -5809
01> -33809
00> -5841
01> -33864
00> -5861
01> -33903
00> -5847
01> -33889
00> -5827
01> -33864
00> -5827
01> -33870
00> -5857
01> -33927
00> -5872
01> -33961
00> -5861
01> -33944
00> -5836
01> -33909
00> -5826
01> -33894
00> -5852
01> -33946
00> -5865
01> -33976
00> -5847
01> -33961
00> -5823
01> -33934
00> -5820
01> -33930
00> -5849
01> -33985
00> -5859
01> -34016
00> -5839
01> -33991
00> -5807
01> -33958
00> -5805
01> -33959
00> -5829
01> -34004
00> -5844
01> -34035
00> -5832
01> -34025
00> -5811
01> -33999
00> -5809
01> -34001
00> -5837
01> -34058
00> -5851
01> -34094
00> -5842
01> -34081
00> -5824
01> -34054
00> -5816
01> -34051
00> -5845
01> -34107
00> -5859
01> -34146
00> -5838
01> -34128
00> -5808
01> -34094
00> -5796
01> -34091
00> -5831
01> -34153
00> -5855
01> -34197
00> -5849
01> -34187
00> -5824
01> -34160
00> -5812
01> -34156
00> -5840
01> -34205
00> -5856
01> -34241
00> -5844
01> -34232
00> -5827
01> -34208
00> -5818
01> -34202
00> -5847
01> -34258
00> -5866
01> -34291
00> -5856
01> -34275
00> -5835
01> -34254
00> -5828
01> -34251
00> -5854
01> -34303
00> -5867
01> -34333
00> -5847
01> -34314
00> -5826
01> -34293
00> -5819
01> -34291
00> -5844
01> -34341
00> -5861
01> -34377
00> -5852
01> -34372
00> -5826
01> -34350
00> -5814
01> -34337
00> -5842
01> -34385
00> -5854
01> -34421
00> -5839
01> -34407
00> -5823
01> -34387
00> -5812
01> -34384
00> -5836
01> -34437
00> -5849
01> -34468
00> -5838
01> -34455
00> -5822
01> -34446
00> -5821
01> -34447
00> -5842
01> -34494
00> -5854
01> -34527
00> -5842
01> -34515
00> -5821
01> -34489
00> -5812
01> -34490
00> -5841
01> -34539
00> -5861
01> -34575
00> -5848
01> -34572
00> -5826
01> -34549
00> -5819
01> -34545
00> -5843
01> -34591
00> -5860
01> -34619
00> -5851
01> -34609
00> -5832
01> -34594
00> -5829
01> -34596
00> -5856
01> -34647
00> -5866
01> -34677
00> -5846
01> -34661
00> -5818
01> -34634
00> -5804
01> -34624
00> -5839
01> -34675
00> -5856
01> -34712
00> -5835
01> -34696
00> -5817
01> -34676
00> -5812
01> -34668
00> -5840
01> -34719
00> -5859
01> -34766
00> -5848
01> -34757
00> -5826
01> -34736
00> -5819
01> -34732
00> -5850
01> -34785
00> -5870
01> -34824
00> -5856
01> -34815
00> -5827
01> -34786
00> -5820
01> -34784
00> -5849
01> -34831
00> -5864
01> -34866
00> -5850
01> -34857
00> -5829
01> -34830
00> -5817
01> -34827
00> -5843
01> -34871
00> -5858
01> -34906
00> -5846
01> -34899
00> -5831
01> -34884
00> -5819
01> -34877
00> -5844
01> -34924
00> -5864
01> -34967
00> -5852
01> -34962
00> -5833
01> -34942
00> -5828
01> -34941
00> -5855
01> -34980
00> -5865
01> -35011
00> -5848
01> -35001
00> -5826
01> -34986
00> -5821
01> -34990
00> -5849
01> -35041
00> -5868
01> -35084
00> -5860
01> -35080
00> -5842
01> -35057
00> -5829
01> -35051
00> -5857
01> -35102
00> -5877
01> -35139
00> -5862
01> -35127
00> -5837
01> -35106
00> -5831
01> -35110
00> -5859
01> -35161
00> -5877
01> -35201
00> -5863
01> -35191
00> -5839
01> -35165
00> -5827
01> -35158
00> -5852
01> -35204
00> -5863
01> -35242
00> -5851
01> -35239
00> -5831
01> -35214
00> -5817
01> -35201
00> -5840
01> -35254
00> -5859
01> -35296
00> -5839
01> -35281
00> -5812
01> -35254
00> -5790
01> -35247
00> -5806
01> -35288
00> -5814
01> -35319
00> -5793
01> -35304
00> -5764
01> -35274
00> -5749
01> -35262
00> -5768
01> -35305
00> -5779
01> -35336
00> -5759
01> -35323
00> -5729
01> -35301
00> -5709
01> -35287
00> -5739
01> -35339
00> -5771
01> -35398
00> -5767
01> -35398
00> -5731
01> -35362
00> -5711
01> -35345
00> -5750
01> -35408
00> -5775
01> -35455
00> -5763
01> -35447
00> -5742
01> -35431
00> -5722
01> -35420
00> -5742
01> -35456
00> -5762
01> -35498
00> -5752
01> -35492
00> -5736
01> -35469
00> -5727
01> -35472
00> -5759
01> -35519
00> -5780
01> -35566
00> -5764
01> -35554
00> -5746
01> -35529
00> -5730
01> -35514
00> -5755
01> -35554
00> -5785
01> -35607
00> -5774
01> -35606
00> -5758
01> -35591
00> -5745
01> -35581
00> -5766
01> -35624
00> -5782
01> -35662
00> -5772
01> -35657
00> -5758
01> -35644
00> -5749
01> -35637
00> -5779
01> -35691
00> -5802
01> -35740
00> -5784
01> -35721
00> -5748
01> -35679
00> -5732
01> -35669
00> -5764
01> -35723
00> -5790
01> -35773
00> -5778
01> -35764
00> -5756
01> -35744
00> -5747
01> -35737
00> -5771
01> -35779
00> -5788
01> -35812
00> -5767
01> -35798
00> -5752
01> -35781
00> -5747
01> -35787
00> -5772
01> -35837
00> -5797
01> -35876
00> -5782
01> -35858
00> -5750
01> -35830
00> -5736
01> -35820
00> -5763
01> -35860
00> -5787
01> -35911
00> -5784
01> -35919
00> -5770
01> -35912
00> -5761
01> -35913
00> -5786
01> -35959
00> -5808
01> -36006
00> -5799
01> -36000
00> -5781
01> -35975
00> -5769
01> -35974
00> -5787
01> -36019
00> -5804
01> -36061
00> -5789
01> -36052
00> -5773
01> -36028
00> -5762
01> -36012
00> -5784
01> -36052
00> -5806
01> -36102
00> -5793
01> -36097
00> -5767
01> -36068
00> -5757
01> -36059
00> -5781
01> -36103
00> -5802
01> -36147
00> -5794
01> -36142
00> -5777
01> -36118
00> -5767
01> -36107
00> -5792
01> -36146
00> -5813
01> -36190
00> -5797
01> -36185
00> -5776
01> -36160
00> -5768
01> -36157
00> -5798
01> -36212
00> -5825
01> -36255
00> -5812
01> -36244
00> -5791
01> -36222
00> -5786
01> -36221
00> -5807
01> -36264
00> -5831
01> -36297
00> -5829
01> -36292
00> -5809
01> -36271
00> -5797
01> -36259
00> -5815
01> -36301
00> -5838
01> -36347
00> -5827
01> -36346
00> -5801
01> -36322
00> -5782
01> -36301
00> -5809
01> -36342
00> -5829
01> -36382
00> -5816
01> -36376
00> -5799
01> -36352
00> -5792
01> -36342
00> -5814
01> -36384
00> -5836
01> -36432
00> -5827
01> -36426
00> -5811
01> -36397
00> -5793
01> -36378
00> -5816
01> -36417
00> -5839
01> -36456
00> -5826
01> -36451
00> -5801
01> -36430
00> -5789
01> -36422
00> -5814
01> -36464
00> -5841
01> -36511
00> -5829
01> -36506
00> -5811
01> -36480
00> -5792
01> -36459
00> -5811
01> -36496
00> -5833
01> -36532
00> -5826
01> -36528
00> -5807
01> -36500
00> -5799
01> -36487
00> -5821
01> -36529
00> -5843
01> -36569
00> -5833
01> -36557
00> -5809
01> -36525
00> -5789
01> -36507
00> -5815
01> -36550
00> -5845
01> -36597
00> -5831
01> -36592
00> -5803
01> -36559
00> -5791
01> -36539
00> -5817
01> -36572
00> -5842
01> -36616
00> -5829
01> -36607
00> -5801
01> -36580
00> -5787
01> -36566
00> -5812
01> -36618
00> -5842
01> -36669
00> -5834
01> -36655
00> -5811
01> -36619
00> -5793
01> -36607
00> -5812
01> -36642
00> -5836
01> -36684
00> -5831
01> -36683
00> -5805
01> -36660
00> -5788
01> -36643
00> -5813
01> -36686
00> -5834
01> -36727
00> -5819
01> -36715
00> -5796
01> -36684
00> -5780
01> -36672
00> -5806
01> -36718
00> -5831
01> -36764
00> -5827
01> -36755
00> -5807
01> -36727
00> -5803
01> -36711
00> -5839
01> -36754
00> -5872
01> -36801
00> -5869
01> -36786
00> -5849
01> -36754
00> -5841
01> -36744
00> -5874
01> -36794
00> -5907
01> -36849
00> -5901
01> -36842
00> -5876
01> -36808
00> -5856
01> -36782
00> -5872
01> -36817
00> -5892
01> -36856
00> -5884
01> -36851
00> -5865
01> -36827
00> -5852
01> -36817
00> -5871
01> -36849
00> -5895
01> -36889
00> -5886
01> -36889
00> -5862
01> -36862
00> -5847
01> -36846
00> -5872
01> -36880
00> -5896
01> -36929
00> -5889
01> -36926
00> -5864
01> -36899
00> -5851
01> -36880
00> -5874
01> -36911
00> -5894
01> -36954
00> -5881
01> -36949
00> -5849
01> -36921
00> -5841
01> -36908
00> -5867
01> -36945
00> -5888
01> -36986
00> -5877
01> -36976
00> -5851
01> -36942
00> -5831
01> -36916
00> -5860
01> -36952
00> -5886
01> -37002
00> -5882
01> -36999
00> -5861
01> -36974
00> -5841
01> -36958
00> -5861
01> -36998
00> -5886
01> -37039
00> -5877
01> -37025
00> -5852
01> -36989
00> -5834
01> -36971
00> -5857
01> -37007
00> -5876
01> -37049
00> -5869
01> -37042
00> -5843
01> -37009
00> -5822
01> -36985
00> -5843
01> -37022
00> -5856
01> -37053
00> -5836
01> -37021
00> -5797
01> -36968
00> -5762
01> -36918
00> -5768
01> -36917
00> -5763
01> -36909
00> -5716
01> -36838
00> -5667
01> -36762
00> -5606
01> -36667
00> -5584
01> -36627
00> -5573
01> -36602
00> -5536
01> -36536
00> -5479
01> -36449
00> -5423
01> -36365
00> -5414
01> -36344
00> -5416
01> -36337
00> -5387
01> -36285
00> -5346
01> -36210
00> -5312
01> -36156
00> -5321
01> -36157
00> -5329
01> -36173
00> -5304
01> -36146
00> -5282
01> -36116
00> -5266
01> -36097
00> -5289
01> -36131
00> -5320
01> -36181
00> -5319
01> -36186
00> -5310
01> -36172
00> -5313
01> -36179
00> -5347
01> -36239
00> -5381
01> -36303
00> -5386
01> -36312
00> -5382
01> -36309
00> -5377
01> -36316
00> -5414
01> -36373
00> -5458
01> -36446
00> -5464
01> -36463
00> -5456
01> -36461
00> -5456
01> -36479
00> -5496
01> -36541
00> -5531
01> -36608
00> -5531
01> -36627
00> -5517
01> -36619
00> -5515
01> -36622
00> -5547
01> -36676
00> -5586
01> -36741
00> -5589
01> -36753
00> -5577
01> -36740
00> -5569
01> -36732
00> -5602
01> -36782
00> -5641
01> -36843
00> -5642
01> -36851
00> -5632
01> -36839
00> -5621
01> -36830
00> -5649
01> -36874
00> -5694
01> -36936
00> -5699
01> -36947
00> -5682
01> -36928
00> -5670
01> -36909
00> -5699

00> -5739
01> -37014
00> -5734
01> -37017
00> -5722
01> -36999
00> -5712
01> -36992
00> -5733
01> -37026
00> -5763
01> -37078
00> -5758
01> -37078
00> -5740
01> -37054
00> -5724
01> -37032
00> -5743
01> -37059
00> -5774
01> -37103
00> -5771
01> -37104
00> -5752
01> -37083
00> -5739
01> -37062
00> -5762
01> -37097
00> -5794
01> -37152
00> -5802
01> -37152
00> -5784
01> -37123
00> -5762
01> -37096
00> -5776
01> -37116
00> -5803
01> -37160
00> -5799
01> -37156
00> -5776
01> -37133
00> -5758
01> -37111
00> -5776
01> -37139
00> -5812
01> -37189
00> -5807
01> -37181
00> -5779
01> -37146
00> -5761
01> -37125
00> -5775
01> -37148
00> -5796
01> -37187
00> -5794
01> -37187
00> -5778
01> -37162
00> -5762
01> -37144
00> -5782
01> -37174
00> -5817
01> -37216
00> -5814
01> -37205
00> -5793
01> -37176
00> -5766
01> -37146
00> -5774
01> -37160
00> -5799
01> -37201
00> -5796
01> -37191
00> -5773
01> -37157
00> -5754
01> -37130
00> -5774
01> -37158
00> -5807
01> -37203
00> -5804
01> -37194
00> -5783
01> -37161
00> -5762
01> -37132
00> -5780
01> -37154
00> -5802
01> -37193
00> -5796
01> -37196
00> -5781
01> -37177
00> -5759
01> -37149
00> -5773
01> -37161
00> -5799
01> -37203
00> -5791
01> -37193
00> -5771
01> -37162
00> -5749
01> -37146
00> -5766
01> -37171
00> -5792
01> -37209
00> -5783
01> -37202
00> -5762
01> -37177
00> -5745
01> -37151
00> -5756
01> -37164
00> -5778
01> -37202
00> -5766
01> -37187
00> -5742
01> -37149
00> -5721
01> -37119
00> -5738
01> -37143
00> -5769
01> -37182
00> -5764
01> -37176
00> -5739
01> -37144
00> -5719
01> -37115
00> -5740
01> -37144
00> -5767
01> -37185
00> -5751
01> -37174
00> -5724
01> -37138
00> -5697
01> -37096
00> -5681
01> -37092
00> -5716
01> -37124
00> -5702
01> -37101
00> -5637
01> -37011
00> -5600
01> -36939
00> -5610
01> -36918
00> -5577
01> -36879
00> -5499
01> -36776
00> -5437
01> -36656
00> -5374
01> -36541
00> -5331
01> -36462
00> -5298
01> -36419
00> -5272
01> -36341
00> -5221
01> -36247
00> -5152
01> -36154
00> -5146
01> -36124
00> -5152
01> -36117
00> -5111
01> -36059
00> -5073
01> -35987
00> -5046
01> -35935
00> -5027
01> -35911
00> -5039
01> -35915
00> -5043
01> -35886
00> -5007
01> -35828
00> -4963
01> -35770
00> -4959
01> -35756
00> -4992
01> -35791
00> -4982
01> -35765
00> -4950
01> -35716
00> -4912
01> -35681
00> -4914
01> -35694
00> -4942
01> -35729
00> -4934
01> -35714
00> -4897
01> -35660
00> -4871
01> -35625
00> -4889
01> -35654
00> -4918
01> -35705
00> -4906
01> -35701
00> -4871
01> -35662
00> -4844
01> -35631
00> -4866
01> -35652
00> -4904
01> -35724
00> -4912
01> -35752
00> -4901
01> -35749
00> -4893
01> -35757
00> -4929
01> -35824
00> -4981
01> -35916
00> -4993
01> -35958
00> -4991
01> -35974
00> -4991
01> -35985
00> -5029
01> -36049
00> -5076
01> -36138
00> -5089
01> -36178
00> -5091
01> -36187
00> -5099
01> -36201
00> -5138
01> -36261
00> -5191
01> -36341
00> -5206
01> -36374
00> -5199
01> -36384
00> -5196
01> -36386
00> -5229
01> -36431
00> -5278
01> -36502
00> -5283
01> -36521
00> -5269
01> -36511
00> -5261
01> -36503
00> -5294
01> -36551
00> -5349
01> -36626
00> -5366
01> -36650
00> -5357
01> -36636
00> -5351
01> -36625
00> -5382
01> -36669
00> -5424
01> -36740
00> -5431
01> -36747
00> -5417
01> -36727
00> -5409
01> -36720
00> -5444
01> -36762
00> -5491
01> -36826
00> -5499
01> -36842
00> -5486
01> -36828
00> -5473
01> -36820
00> -5499
01> -36862
00> -5546
01> -36927
00> -5556
01> -36938
00> -5542
01> -36917
00> -5530
01> -36899
00> -5548
01> -36929
00> -5577
01> -36975
00> -5574
01> -36971
00> -5552
01> -36943
00> -5540
01> -36924
00> -5567
01> -36954
00> -5602
01> -37005
00> -5602
01> -37000
00> -5577
01> -36969
00> -5556
01> -36947
00> -5573
01> -36969
00> -5607
01> -37018
00> -5612
01> -37023
00> -5586
01> -36994
00> -5569
01> -36970
00> -5588
01> -36994
00> -5621
01> -37046
00> -5614
01> -37039
00> -5589
01> -36992
00> -5564
01> -36957
00> -5572
01> -36967
00> -5602
01> -37007
00> -5606
01> -37007
00> -5586
01> -36973
00> -5569
01> -36950
00> -5586
01> -36974
00> -5612
01> -37014
00> -5607
01> -37005
00> -5583
01> -36974
00> -5561
01> -36948
00> -5576
01> -36969
00> -5609
01> -37016
00> -5606
01> -37011
00> -5582
01> -36980
00> -5562
01> -36952
00> -5584
01> -36966
00> -5614
01> -37012
00> -5608
01> -37009
00> -5587
01> -36972
00> -5567
01> -36945
00> -5579
01> -36967
00> -5610
01> -37010
00> -5607
01> -37004
00> -5587
01> -36966
00> -5564
01> -36934
00> -5574
01> -36951
00> -5601
01> -36996
00> -5603
01> -36997
00> -5580
01> -36967
00> -5559
01> -36940
00> -5574
01> -36956
00> -5612
01> -37006
00> -5606
01> -37007
00> -5586
01> -36979
00> -5568
01> -36951
00> -5576
01> -36958
00> -5602
01> -37002
00> -5598
01> -37006
00> -5574
01> -36976
00> -5557
01> -36948
00> -5564
01> -36965
00> -5595
01> -37009
00> -5599
01> -37010
00> -5576
01> -36981
00> -5556
01> -36952
00> -5563
01> -36963
00> -5592
01> -37007
00> -5592
01> -37009
00> -5570
01> -36976
00> -5551
01> -36949
00> -5561
01> -36969
00> -5591
01> -37008
00> -5591
01> -37007
00> -5567
01> -36977
00> -5539
01> -36950
00> -5554
01> -36973
00> -5586
01> -37023
00> -5581
01> -37021
00> -5561
01> -36987
00> -5543
01> -36949
00> -5553
01> -36962
00> -5579
01> -37008
00> -5574
01> -37014
00> -5552
01> -36982
00> -5534
01> -36945
00> -5550
01> -36962
00> -5586
01> -37014
00> -5584
01> -37017
00> -5566
01> -36987
00> -5543
01> -36954
00> -5557
01> -36979
00> -5596
01> -37041
00> -5604
01> -37057
00> -5592
01> -37035
00> -5575
01> -37019
00> -5588
01> -37041
00> -5626
01> -37095
00> -5627
01> -37101
00> -5611
01> -37075
00> -5583
01> -37047
00> -5592
01> -37055
00> -5623
01> -37100
00> -5624
01> -37102
00> -5599
01> -37069
00> -5579
01> -37042
00> -5591
01> -37062
00> -5624
01> -37114
00> -5619
01> -37104
00> -5594
01> -37065
00> -5571
01> -37036
00> -5584
01> -37051
00> -5615
01> -37102
00> -5614
01> -37104
00> -5589
01> -37064
00> -5566
01> -37034
00> -5578
01> -37057
00> -5615
01> -37114
00> -5621
01> -37124
00> -5593
01> -37087
00> -5566
01> -37047
00> -5576
01> -37059
00> -5611
01> -37106
00> -5610
01> -37113
00> -5583
01> -37075
00> -5554
01> -37034
00> -5567
01> -37046
00> -5606
01> -37101
00> -5610
01> -37099
00> -5586
01> -37064
00> -5562
01> -37036
00> -5567
01> -37050
00> -5592
01> -37094
00> -5591
01> -37096
00> -5569
01> -37066
00> -5545
01> -37032
00> -5551
01> -37043
00> -5585
01> -37091
00> -5592
01> -37091
00> -5567
01> -37060
00> -5543
01> -37026
00> -5556
01> -37049
00> -5589
01> -37102
00> -5588
01> -37099
00> -5561
01> -37057
00> -5533
01> -37021
00> -5536
01> -37027
00> -5571
01> -37078
00> -5569
01> -37074
00> -5546
01> -37045
00> -5525
01> -37021
00> -5529
01> -37028
00> -5564
01> -37071
00> -5566
01> -37075
00> -5539
01> -37042
00> -5516
01> -37007
00> -5528
01> -37021
00> -5567
01> -37073
00> -5566
01> -37071
00> -5538
01> -37030
00> -5512
01> -36995
00> -5521
01> -37011
00> -5559
01> -37065
00> -5559
01> -37072
00> -5535
01> -37042
00> -5512
01> -37010
00> -5518
01> -37017
00> -5552
01> -37067
00> -5557
01> -37074
00> -5532
01> -37038
00> -5509
01> -37000
00> -5514
01> -37006
00> -5544
01> -37049
00> -5549
01> -37050
00> -5527
01> -37025
00> -5508
01> -37002
00> -5517
01> -37011
00> -5545
01> -37054
00> -5541
01> -37051
00> -5513
01> -37021
00> -5494
01> -36991
00> -5502
01> -37002
00> -5533
01> -37047
00> -5535
01> -37049
00> -5512
01> -37014
00> -5494
01> -36987
00> -5504
01> -37006
00> -5540
01> -37060
00> -5537
01> -37061
00> -5499
01> -37012
00> -5462
01> -36968
00> -5467
01> -36981
00> -5496
01> -37036
00> -5494
01> -37039
00> -5462
01> -37005
00> -5427
01> -36962
00> -5422
01> -36967
00> -5447
01> -37017
00> -5437
01> -37012
00> -5399
01> -36972
00> -5366
01> -36931
00> -5369
01> -36939
00> -5407
01> -36993
00> -5407
01> -36995
00> -5381
01> -36956
00> -5357
01> -36922
00> -5362
01> -36933
00> -5398
01> -36981
00> -5401
01> -36991
00> -5377
01> -36967
00> -5356
01> -36940
00> -5366
01> -36942
00> -5394
01> -36984
00> -5395
01> -36987
00> -5369
01> -36955
00> -5341
01> -36917
00> -5356
01> -36930
00> -5396
01> -36983
00> -5393
01> -36986
00> -5369
01> -36946
00> -5339
01> -36904
00> -5343
01> -36903
00> -5376
01> -36956
00> -5383
01> -36965
00> -5357
01> -36930
00> -5334
01> -36898
00> -5354
01> -36926
00> -5396
01> -36987
00> -5392
01> -36984
00> -5356
01> -36939
00> -5326
01> -36899
00> -5329
01> -36902
00> -5365
01> -36951
00> -5367
01> -36959
00> -5346
01> -36933
00> -5326
01> -36899
00> -5326
01> -36903
00> -5359
01> -36953
00> -5363
01> -36958
00> -5341
01> -36921
00> -5317
01> -36884
00> -5315
01> -36888
00> -5347
01> -36943
00> -5353
01> -36957
00> -5329
01> -36920
00> -5309
01> -36876
00> -5309
01> -36872
00> -5347
01> -36920
00> -5353
01> -36931
00> -5323
01> -36894
00> -5294
01> -36858
00> -5290
01> -36854
00> -5321
01> -36906
00> -5326
01> -36917
00> -5305
01> -36882
00> -5279
01> -36840
00> -5287
01> -36842
00> -5331
01> -36901
00> -5341
01> -36914
00> -5311
01> -36875
00> -5274
01> -36829
00> -5274
01> -36826
00> -5311
01> -36876
00> -5318
01> -36883
00> -5290
01> -36845
00> -5264
01> -36806
00> -5264
01> -36806
00> -5287
01> -36844
00> -5282
01> -36842
00> -5233
01> -36782
00> -5199
01> -36729
00> -5177
01> -36682
00> -5153
01> -36654
00> -5134
01> -36627
00> -5086
01> -36545
00> -5011
01> -36432
00> -4956
01> -36349
00> -4952
01> -36325
00> -4921
01> -36266
00> -4866
01> -36169
00> -4815
01> -36069
00> -4802
01> -36018
00> -4832
01> -36032
00> -4827
01> -36007
00> -4791
01> -35938
00> -4762
01> -35879
00> -4769
01> -35868
00> -4824
01> -35928
00> -4852
01> -35947
00> -4845
01> -35916
00> -4832
01> -35878
00> -4854
01> -35896
00> -4906
01> -35978
00> -4935
01> -36016
00> -4934
01> -36011
00> -4922
01> -35996
00> -4938
01> -36021
00> -4993
01> -36099
00> -5016
01> -36134
00> -5000
01> -36127
00> -4981
01> -36120
00> -4997
01> -36150
00> -5046
01> -36218
00> -5062
01> -36244
00> -5040
01> -36224
00> -5013
01> -36201
00> -5023
01> -36217
00> -5071
01> -36287
00> -5090
01> -36321
00> -5072
01> -36306
00> -5051
01> -36286
00> -5062
01> -36308
00> -5113
01> -36382
00> -5129
01> -36411
00> -5111
01> -36387
00> -5086
01> -36354
00> -5090
01> -36366
00> -5142
01> -36436
00> -5167
01> -36467
00> -5159
01> -36453
00> -5141
01> -36428
00> -5147
01> -36439
00> -5191
01> -36506
00> -5216
01> -36537
00> -5198
01> -36512
00> -5169
01> -36481
00> -5176
01> -36491
00> -5214
01> -36542
00> -5225
01> -36554
00> -5206
01> -36524
00> -5184
01> -36494
00> -5191
01> -36503
00> -5229
01> -36561
00> -5247
01> -36582
00> -5229
01> -36554
00> -5209
01> -36516
00> -5217
01> -36521
00> -5255
01> -36581
00> -5267
01> -36604
00> -5251
01> -36582
00> -5224
01> -36550
00> -5224
01> -36552
00> -5257
01> -36598
00> -5264
01> -36609
00> -5244
01> -36581
00> -5222
01> -36554
00> -5229
01> -36558
00> -5267
01> -36614
00> -5272
01> -36631
00> -5256
01> -36602
00> -5239
01> -36573
00> -5242
01> -36573
00> -5273
01> -36621
00> -5280
01> -36633
00> -5257
01> -36599
00> -5229
01> -36566
00> -5232
01> -36570
00> -5271
01> -36618
00> -5282
01> -36634
00> -5257
01> -36601
00> -5221
01> -36554
00> -5212
01> -36541
00> -5249
01> -36595
00> -5275
01> -36621
00> -5259
01> -36601
00> -5228
01> -36562
00> -5228
01> -36560
00> -5269
01> -36618
00> -5284
01> -36634
00> -5257
01> -36596
00> -5220
01> -36552
00> -5208
01> -36536
00> -5241
01> -36574
00> -5261
01> -36598
00> -5237
01> -36577
00> -5215
01> -36540
00> -5216
01> -36539
00> -5248
01> -36589
00> -5259
01> -36599
00> -5239
01> -36570
00> -5212
01> -36538
00> -5216
01> -36536
00> -5249
01> -36587
00> -5251
01> -36602
00> -5227
01> -36558
00> -5197
01> -36507
00> -5192
01> -36498
00> -5224
01> -36546
00> -5237
01> -36562
00> -5220
01> -36534
00> -5194
01> -36497
00> -5194
01> -36498
00> -5229
01> -36549
00> -5239
01> -36562
00> -5221
01> -36525
00> -5198
01> -36492
00> -5196
01> -36484
00> -5233
01> -36530
00> -5244
01> -36547
00> -5228
01> -36520
00> -5202
01> -36488
00> -5198
01> -36482
00> -5231
01> -36527
00> -5246
01> -36553
00> -5230
01> -36528
00> -5202
01> -36491
00> -5203
01> -36488
00> -5236
01> -36535
00> -5245
01> -36554
00> -5225
01> -36521
00> -5204
01> -36486
00> -5204
01> -36485
00> -5240
01> -36541
00> -5257
01> -36559
00> -5237
01> -36527
00> -5209
01> -36482
00> -5209
01> -36474
00> -5241
01> -36514
00> -5241
01> -36516
00> -5219
01> -36483
00> -5206
01> -36445
00> -5206
01> -36437
00> -5238
01> -36494
00> -5246
01> -36511
00> -5222
01> -36478
00> -5196
01> -36443
00> -5196
01> -36441
00> -5227
01> -36484
00> -5232
01> -36497
00> -5217
01> -36470
00> -5196
01> -36435
00> -5192
01> -36433
00> -5229
01> -36484
00> -5236
01> -36496
00> -5213
01> -36461
00> -5187
01> -36423
00> -5181
01> -36424
00> -5220
01> -36473
00> -5236
01> -36494
00> -5217
01> -36469
00> -5196
01> -36432
00> -5191
01> -36423
00> -5217
01> -36461
00> -5227
01> -36472
00> -5204
01> -36438
00> -5178
01> -36402
00> -5177
01> -36396
00> -5211
01> -36437
00> -5216
01> -36457
00> -5196
01> -36428
00> -5179
01> -36399
00> -5179
01> -36401
00> -5216
01> -36447
00> -5230
01> -36471
00> -5208
01> -36444
00> -5177
01> -36409
00> -5176
01> -36406
00> -5207
01> -36453
00> -5216
01> -36466
00> -5189
01> -36440
00> -5166
01> -36407
00> -5169
01> -36394
00> -5203
01> -36429
00> -5214
01> -36446
00> -5196
01> -36427
00> -5169
01> -36393
00> -5166
01> -36391
00> -5198
01> -36439
00> -5207
01> -36455
00> -5187
01> -36423
00> -5166
01> -36385
00> -5164
01> -36377
00> -5194
01> -36415
00> -5206
01> -36433
00> -5189
01> -36407
00> -5161
01> -36369
00> -5154
01> -36359
00> -5186
01> -36407
00> -5200
01> -36429
00> -5184
01> -36409
00> -5163
01> -36379
00> -5159
01> -36365
00> -5193
01> -36404
00> -5206
01> -36431
00> -5188
01> -36401
00> -5162
01> -36360
00> -5153
01> -36348
00> -5178
01> -36382
00> -5187
01> -36394
00> -5168
01> -36364
00> -5144
01> -36331
00> -5134
01> -36325
00> -5170
01> -36374
00> -5185
01> -36389
00> -5167
01> -36366
00> -5139
01> -36326
00> -5126
01> -36307
00> -5156
01> -36353
00> -5167
01> -36372
00> -5151
01> -36347
00> -5131
01> -36309
00> -5123
01> -36295
00> -5151
01> -36339
00> -5163
01> -36356
00> -5147
01> -36327
00> -5130
01> -36298
00> -5131
01> -36293
00> -5161
01> -36336
00> -5169
01> -36352
00> -5147
01> -36319
00> -5121
01> -36272
00> -5116
01> -36257
00> -5147
01> -36299
00> -5160
01> -36316
00> -5143
01> -36289
00> -5117
01> -36259
00> -5115
01> -36251
00> -5145
01> -36286
00> -5154
01> -36301
00> -5139
01> -36276
00> -5111
01> -36248
00> -5108
01> -36237
00> -5141
01> -36273
00> -5157
01> -36288
00> -5140
01> -36259
00> -5109
01> -36217
00> -5099
01> -36199
00> -5124
01> -36241
00> -5142
01> -36269
00> -5129
01> -36249
00> -5104
01> -36210
00> -5095
01> -36191
00> -5128
01> -36236
00> -5146
01> -36259
00> -5134
01> -36229
00> -5109
01> -36189
00> -5099
01> -36177
00> -5129
01> -36219
00> -5142
01> -36239
00> -5125
01> -36211
00> -5099
01> -36171
00> -5091
01> -36163
00> -5122
01> -36206
00> -5132
01> -36222
00> -5112
01> -36189
00> -5086
01> -36151
00> -5069
01> -36133
00> -5093
01> -36165
00> -5105
01> -36184
00> -5091
01> -36161
00> -5071
01> -36135
00> -5067
01> -36132
00> -5102
01> -36177
00> -5119
01> -36198
00> -5094
01> -36167
00> -5060
01> -36116
00> -5047
01> -36092
00> -5079
01> -36133
00> -5096
01> -36154
00> -5078
01> -36121
00> -5039
01> -36064
00> -5013
01> -36033
00> -5041
01> -36050
00> -5039
01> -36042
00> -4994
01> -35984
00> -4954
01> -35906
00> -4914
01> -35828
00> -4906
01> -35801
00> -4877
01> -35753
00> -4807
01> -35663
00> -4755
01> -35573
00> -4722
01> -35515
00> -4726
01> -35497
00> -4720
01> -35471
00> -4671
01> -35405
00> -4611
01> -35321
00> -4564
01> -35244
00> -4580
01> -35239
00> -4606
01> -35242
00> -4585
01> -35189
00> -4542
01> -35114
00> -4513
01> -35067
00> -4527
01> -35078
00> -4524
01> -35066
00> -4491
01> -35019
00> -4458
01> -34975
00> -4456
01> -34941
00> -4480
01> -34968
00> -4497
01> -34978
00> -4482
01> -34939
00> -4447
01> -34882
00> -4419
01> -34850
00> -4436
01> -34874
00> -4454
01> -34888
00> -4441
01> -34849
00> -4413
01> -34797
00> -4411
01> -34776
00> -4437
01> -34802
00> -4447
01> -34814
00> -4417
01> -34777
00> -4385
01> -34732
00> -4379
01> -34724
00> -4414
01> -34764
00> -4432
01> -34778
00> -4410
01> -34733
00> -4382
01> -34683
00> -4363
01> -34651
00> -4372
01> -34676
00> -4390
01> -34700
00> -4374
01> -34664
00> -4343
01> -34619
00> -4340
01> -34596
00> -4368
01> -34623
00> -4382
01> -34631
00> -4360
01> -34586
00> -4331
01> -34541
00> -4321
01> -34524
00> -4344
01> -34552
00> -4336
01> -34549
00> -4303
01> -34507
00> -4284
01> -34473
00> -4277
01> -34462
00> -4311
01> -34500
00> -4331
01> -34521
00> -4308
01> -34489
00> -4278
01> -34445
00> -4259
01> -34426
00> -4273
01> -34460
00> -4291
01> -34479
00> -4281
01> -34462
00> -4259
01> -34422
00> -4252
01> -34402
00> -4284
01> -34434
00> -4293
01> -34446
00> -4261
01> -34410
00> -4223
01> -34364
00> -4202
01> -34338
00> -4225
01> -34370
00> -4241
01> -34394
00> -4227
01> -34367
00> -4201
01> -34329
00> -4181
01> -34303
00> -4212
01> -34334
00> -4240
01> -34369
00> -4217
01> -34350
00> -4182
01> -34299
00> -4166
01> -34271
00> -4196
01> -34309
00> -4209
01> -34329
00> -4186
01> -34297
00> -4160
01> -34261
00> -4151
01> -34247
00> -4176
01> -34284
00> -4190
01> -34302
00> -4182
01> -34277
00> -4158
01> -34245
00> -4149
01> -34233
00> -4174
01> -34269
00> -4184
01> -34291
00> -4149
01> -34254
00> -4124
01> -34210
00> -4122
01> -34199
00> -4154
01> -34239
00> -4173
01> -34261
00> -4160
01> -34226
00> -4123
01> -34176
00> -4104
01> -34156
00> -4122
01> -34191
00> -4149
01> -34223
00> -4146
01> -34211
00> -4119
01> -34176
00> -4106
01> -34146
00> -4129
01> -34172
00> -4150
01> -34199
00> -4134
01> -34176
00> -4102
01> -34132
00> -4077
01> -34111
00> -4102
01> -34148
00> -4122
01> -34173
00> -4105
01> -34154
00> -4074
01> -34119
00> -4052
01> -34086
00> -4077
01> -34114
00> -4101
01> -34147
00> -4092
01> -34135
00> -4074
01> -34104
00> -4071
01> -34089
00> -4096
01> -34118
00> -4099
01> -34136
00> -4074
01> -34106
00> -4045
01> -34071
00> -4031
01> -34057
00> -4064
01> -34103
00> -4084
01> -34134
00> -4061
01> -34113
00> -4029
01> -34079
00> -4014
01> -34056
00> -4041
01> -34089
00> -4066
01> -34115
00> -4054
01> -34087
00> -4025
01> -34042
00> -4007
01> -34014
00> -4034
01> -34047
00> -4056
01> -34084
00> -4037
01> -34066
00> -4007
01> -34026
00> -3980
01> -34002
00> -4001
01> -34027
00> -4027
01> -34050
00> -4009
01> -34032
00> -3987
01> -34002
00> -3987
01> -33984
00> -4019
01> -34027
00> -4035
01> -34053
00> -4018
01> -34031
00> -3995
01> -34000
00> -3981
01> -33981
00> -4004
01> -34017
00> -4023
01> -34051
00> -4007
01> -34028
00> -3978
01> -33987
00> -3966
01> -33964
00> -3993
01> -34004
00> -4023
01> -34042
00> -4019
01> -34025
00> -3990
01> -33986
00> -3971
01> -33955
00> -3993
01> -33979
00> -4008
01> -34011
00> -3984
01> -33984
00> -3954
01> -33938
00> -3939
01> -33909
00> -3953
01> -33928
00> -3971
01> -33947
00> -3959
01> -33927
00> -3927
01> -33889
00> -3917
01> -33866
00> -3952
01> -33905
00> -3979
01> -33944
00> -3969
01> -33923
00> -3944
01> -33884
00> -3927
01> -33859
00> -3956
01> -33904
00> -3985
01> -33940
00> -3976
01> -33926
00> -3963
01> -33896
00> -3961
01> -33889
00> -3988
01> -33925
00> -4013
01> -33954
00> -4005
01> -33931
00> -3982
01> -33896
00> -3969
01> -33883
00> -3990
01> -33916
00> -4017
01> -33953
00> -4011
01> -33944
00> -3997
01> -33909
00> -3996
01> -33893
00> -4029
01> -33939
00> -4051
01> -33974
00> -4036
01> -33949
00> -4003
01> -33915
00> -3984
01> -33887
00> -4006
01> -33912
00> -4029
01> -33943
00> -4019
01> -33927
00> -3996
01> -33889
00> -3989
01> -33864
00> -4018
01> -33901
00> -4047
01> -33934
00> -4042
01> -33927
00> -4029
01> -33899
00> -4019
01> -33864
00> -4034
01> -33892
00> -4059
01> -33921
00> -4050
01> -33907
00> -4019
01> -33869
00> -3996
01> -33835
00> -4021
01> -33867
00> -4037
01> -33896
00> -4017
01> -33873
00> -3992
01> -33841
00> -3982
01> -33815
00> -4002
01> -33844
00> -4034
01> -33887
00> -4025
01> -33868
00> -4000
01> -33822
00> -3981
01> -33791
00> -4002
01> -33812
00> -4021
01> -33836
00> -4012
01> -33814
00> -3982
01> -33776
00> -3969
01> -33756
00> -4001
01> -33792
00> -4033
01> -33830
00> -4023
01> -33816
00> -3998
01> -33780
00> -3989
01> -33756
00> -4009
01> -33787
00> -4034
01> -33823
00> -4029
01> -33815
00> -4005
01> -33779
00> -3992
01> -33761
00> -4020
01> -33799
00> -4047
01> -33836
00> -4046
01> -33823
00> -4026
01> -33790
00> -4008
01> -33766
00> -4034
01> -33797
00> -4068
01> -33843
00> -4067
01> -33838
00> -4048
01> -33806
00> -4033
01> -33781
00> -4054
01> -33807
00> -4074
01> -33837
00> -4065
01> -33817
00> -4037
01> -33782
00> -4022
01> -33762
00> -4050
01> -33797
00> -4078
01> -33832
00> -4066
01> -33811
00> -4047
01> -33777
00> -4040
01> -33764
00> -4066
01> -33798
00> -4092
01> -33836
00> -4095
01> -33827
00> -4093
01> -33803
00> -4079
01> -33786
00> -4105
01> -33811
00> -4133
01> -33841
00> -4121
01> -33825
00> -4101
01> -33791
00> -4085
01> -33756
00> -4113
01> -33787
00> -4143
01> -33831
00> -4142
01> -33821
00> -4127
01> -33792
00> -4114
01> -33767
00> -4145
01> -33797
00> -4176
01> -33836
00> -4171
01> -33817
00> -4147
01> -33778
00> -4136
01> -33754
00> -4160
01> -33783
00> -4194
01> -33821
00> -4198
01> -33812
00> -4181
01> -33781
00> -4174
01> -33763
00> -4198
01> -33797
00> -4223
01> -33841
00> -4212
01> -33827
00> -4193
01> -33790
00> -4186
01> -33772
00> -4218
01> -33809
00> -4247
01> -33844
00> -4239
01> -33829
00> -4209
01> -33788
00> -4191
01> -33754
00> -4215
01> -33782
00> -4242
01> -33830
00> -4241
01> -33826
00> -4224
01> -33792
00> -4209
01> -33759
00> -4234
01> -33781
00> -4262
01> -33816
00> -4252
01> -33801
00> -4229
01> -33761
00> -4212
01> -33731
00> -4242
01> -33764
00> -4270
01> -33800
00> -4263
01> -33787
00> -4241
01> -33754
00> -4219
01> -33728
00> -4247
01> -33766
00> -4279
01> -33802
00> -4277
01> -33782
00> -4254
01> -33749
00> -4242
01> -33724
00> -4259
01> -33746
00> -4286
01> -33780
00> -4275
01> -33772
00> -4251
01> -33749
00> -4237
01> -33733
00> -4259
01> -33760
00> -4284
01> -33789
00> -4271
01> -33771
00> -4252
01> -33735
00> -4237
01> -33709
00> -4260
01> -33731
00> -4289
01> -33768
00> -4274
01> -33751
00> -4247
01> -33706
00> -4231
01> -33681
00> -4246
01> -33717
00> -4264
01> -33756
00> -4251
01> -33732
00> -4229
01> -33690
00> -4219
01> -33666
00> -4249
01> -33701
00> -4277
01> -33741
00> -4267
01> -33724
00> -4237
01> -33689
00> -4221
01> -33665
00> -4241
01> -33701
00> -4270
01> -33739
00> -4254
01> -33721
00> -4224
01> -33684
00> -4203
01> -33654
00> -4221
01> -33680
00> -4249
01> -33711
00> -4247
01> -33699
00> -4223
01> -33662
00> -4195
01> -33625
00> -4213
01> -33643
00> -4236
01> -33676
00> -4231
01> -33666
00> -4216
01> -33633
00> -4198
01> -33597
00> -4213
01> -33616
00> -4229
01> -33648
00> -4214
01> -33630
00> -4188
01> -33598
00> -4167
01> -33574
00> -4189
01> -33601
00> -4219
01> -33647
00> -4218
01> -33644
00> -4198
01> -33619
00> -4179
01> -33591
00> -4201
01> -33617
00> -4224
01> -33658
00> -4212
01> -33644
00> -4189
01> -33606
00> -4171
01> -33581
00> -4182
01> -33607
00> -4208
01> -33641
00> -4197
01> -33628
00> -4173
01> -33589
00> -4147
01> -33555
00> -4163
01> -33571
00> -4184
01> -33601
00> -4172
01> -33586
00> -4153
01> -33556
00> -4139
01> -33537
00> -4152
01> -33563
00> -4169
01> -33596
00> -4159
01> -33578
00> -4135
01> -33536
00> -4113
01> -33505
00> -4125
01> -33529
00> -4149
01> -33564
00> -4134
01> -33549
00> -4106
01> -33519
00> -4082
01> -33496
00> -4101
01> -33519
00> -4127
01> -33561
00> -4119
01> -33551
00> -4096
01> -33516
00> -4079
01> -33487
00> -4089
01> -33516
00> -4112
01> -33556
00> -4093
01> -33536
00> -4060
01> -33496
00> -4041
01> -33455
00> -4057
01> -33470
00> -4082
01> -33503
00> -4074
01> -33492
00> -4049
01> -33449
00> -4024
01> -33411
00> -4038
01> -33429
00> -4065
01> -33466
00> -4054
01> -33450
00> -4024
01> -33415
00> -3999
01> -33382
00> -4011
01> -33399
00> -4039
01> -33442
00> -4034
01> -33430
00> -4009
01> -33389
00> -3987
01> -33356
00> -4001
01> -33382
00> -4034
01> -33425
00> -4024
01> -33417
00> -4004
01> -33386
00> -3983
01> -33364
00> -4000
01> -33386
00> -4021
01> -33413
00> -4009
01> -33394
00> -3991
01> -33356
00> -3965
01> -33326
00> -3974
01> -33349
00> -4006
01> -33389
00> -3998
01> -33380
00> -3969
01> -33336
00> -3946
01> -33295
00> -3954
01> -33307
00> -3968
01> -33337
00> -3962
01> -33324
00> -3941
01> -33296
00> -3914
01> -33269
00> -3924
01> -33289
00> -3946
01> -33326
00> -3941
01> -33319
00> -3919
01> -33285
00> -3889
01> -33257
00> -3897
01> -33281
00> -3921
01> -33322
00> -3914
01> -33314
00> -3886
01> -33285
00> -3854
01> -33247
00> -3862
01> -33261
00> -3877
01> -33294
00> -3856
01> -33273
00> -3824
01> -33232
00> -3797
01> -33199
00> -3805
01> -33214
00> -3834
01> -33252
00> -3821
01> -33246
00> -3779
01> -33202
00> -3749
01> -33167
00> -3760
01> -33187
00> -3779
01> -33230
00> -3759
01> -33219
00> -3734
01> -33191
00> -3713
01> -33168
00> -3724
01> -33190
00> -3754
01> -33229
00> -3746
01> -33231
00> -3721
01> -33205
00> -3696
01> -33178
00> -3705
01> -33198
00> -3722
01> -33239
00> -3711
01> -33231
00> -3686
01> -33202
00> -3662
01> -33175
00> -3681
01> -33193
00> -3718
01> -33242
00> -3717
01> -33242
00> -3690
01> -33216
00> -3676
01> -33202
00> -3687
01> -33225
00> -3714
01> -33264
00> -3712
01> -33259
00> -3692
01> -33224
00> -3672
01> -33189
00> -3684
01> -33210
00> -3714
01> -33256
00> -3716
01> -33253
00> -3695
01> -33229
00> -3674
01> -33206
00> -3687
01> -33232
00> -3717
01> -33291
00> -3723
01> -33302
00> -3712
01> -33288
00> -3702
01> -33277
00> -3726
01> -33312
00> -3769
01> -33376
00> -3779
01> -33393
00> -3775
01> -33396
00> -3776
01> -33411
00> -3817
01> -33471
00> -3871
01> -33552
00> -3894
01> -33586
00> -3901
01> -33589
00> -3897
01> -33584
00> -3932
01> -33629
00> -3984
01> -33711
00> -4012
01> -33749
00> -4029
01> -33764
00> -4042
01> -33774
00> -4076
01> -33837
00> -4127
01> -33919
00> -4151
01> -33952
00> -4157
01> -33966
00> -4178
01> -33984
00> -4214
01> -34041
00> -4267
01> -34121
00> -4290
01> -34160
00> -4291
01> -34161
00> -4287
01> -34159
00> -4319
01> -34201
00> -4369
01> -34267
00> -4382
01> -34286
00> -4371
01> -34267
00> -4362
01> -34251
00> -4383
01> -34276
00> -4425
01> -34328
00> -4434
01> -34334
00> -4418
01> -34311
00> -4401
01> -34283
00> -4423
01> -34306
00> -4462
01> -34352
00> -4462
01> -34345
00> -4442
01> -34317
00> -4421
01> -34292
00> -4442
01> -34310
00> -4477
01> -34357
00> -4478
01> -34364
00> -4467
01> -34354
00> -4459
01> -34339
00> -4472
01> -34361
00> -4506
01> -34405
00> -4507
01> -34405
00> -4490
01> -34382
00> -4476
01> -34361
00> -4487
01> -34386
00> -4520
01> -34437
00> -4520
01> -34433
00> -4500
01> -34394
00> -4478
01> -34367
00> -4499
01> -34388
00> -4528
01> -34432
00> -4521
01> -34421
00> -4499
01> -34381
00> -4474
01> -34342
00> -4479
01> -34348
00> -4509
01> -34390
00> -4507
01> -34389
00> -4487
01> -34355
00> -4467
01> -34329
00> -4479
01> -34342
00> -4511
01> -34384
00> -4511
01> -34383
00> -4490
01> -34354
00> -4472
01> -34330
00> -4478
01> -34339
00> -4510
01> -34375
00> -4510
01> -34369
00> -4487
01> -34339
00> -4472
01> -34312
00> -4490
01> -34326
00> -4520
01> -34372
00> -4514
01> -34368
00> -4491
01> -34337
00> -4473
01> -34314
00> -4489
01> -34339
00> -4518
01> -34382
00> -4518
01> -34377
00> -4496
01> -34334
00> -4469
01> -34292
00> -4486
01> -34305
00> -4512
01> -34350
00> -4518
01> -34356
00> -4502
01> -34332
00> -4481
01> -34299
00> -4484
01> -34306
00> -4508
01> -34341
00> -4507
01> -34334
00> -4484
01> -34301
00> -4465
01> -34271
00> -4479
01> -34285
00> -4502
01> -34330
00> -4502
01> -34332
00> -4484
01> -34301
00> -4466
01> -34271
00> -4482
01> -34285
00> -4512
01> -34329
00> -4516
01> -34321
00> -4486
01> -34283
00> -4460
01> -34248
00> -4469
01> -34254
00> -4501
01> -34301
00> -4499
01> -34309
00> -4487
01> -34284
00> -4469
01> -34250
00> -4481
01> -34264
00> -4507
01> -34303
00> -4509
01> -34299
00> -4487
01> -34266
00> -4464
01> -34234
00> -4477
01> -34246
00> -4505
01> -34291
00> -4504
01> -34294
00> -4483
01> -34260
00> -4469
01> -34228
00> -4480
01> -34244
00> -4514
01> -34288
00> -4512
01> -34283
00> -4489
01> -34251
00> -4461
01> -34212
00> -4470
01> -34219
00> -4504
01> -34261
00> -4507
01> -34261
00> -4487
01> -34229
00> -4467
01> -34196
00> -4467
01> -34199
00> -4498
01> -34244
00> -4501
01> -34244
00> -4477
01> -34206
00> -4453
01> -34172
00> -4457
01> -34177
00> -4488
01> -34214
00> -4488
01> -34208
00> -4467
01> -34167
00> -4447
01> -34134
00> -4455
01> -34151
00> -4494
01> -34196
00> -4506
01> -34198
00> -4496
01> -34167
00> -4480
01> -34134
00> -4488
01> -34138
00> -4530
01> -34186
00> -4540
01> -34196
00> -4529
01> -34169
00> -4506
01> -34136
00> -4515
01> -34144
00> -4552
01> -34197
00> -4552
01> -34202
00> -4535
01> -34158
00> -4512
01> -34124
00> -4520
01> -34131
00> -4548
01> -34171
00> -4545
01> -34168
00> -4524
01> -34142
00> -4504
01> -34111
00> -4512
01> -34112
00> -4544
01> -34157
00> -4547
01> -34164
00> -4526
01> -34133
00> -4507
01> -34097
00> -4512
01> -34109
00> -4543
01> -34151
00> -4546
01> -34147
00> -4521
01> -34110
00> -4497
01> -34079
00> -4507
01> -34082
00> -4537
01> -34124
00> -4534
01> -34119
00> -4512
01> -34086
00> -4492
01> -34054
00> -4502
01> -34067
00> -4531
01> -34106
00> -4530
01> -34111
00> -4509
01> -34081
00> -4487
01> -34044
00> -4493
01> -34047
00> -4526
01> -34091
00> -4529
01> -34099
00> -4511
01> -34078
00> -4492
01> -34049
00> -4497
01> -34046
00> -4526
01> -34078
00> -4531
01> -34084
00> -4511
01> -34060
00> -4485
01> -34021
00> -4485
01> -34022
00> -4511
01> -34064
00> -4518
01> -34068
00> -4499
01> -34033
00> -4478
01> -33993
00> -4487
01> -33999
00> -4521
01> -34042
00> -4521
01> -34045
00> -4501
01> -34011
00> -4478
01> -33980
00> -4486
01> -33989
00> -4519
01> -34027
00> -4522
01> -34031
00> -4511
01> -34002
00> -4495
01> -33963
00> -4501
01> -33966
00> -4530
01> -34012
00> -4528
01> -34012
00> -4508
01> -33977
00> -4487
01> -33949
00> -4496
01> -33956
00> -4530
01> -33997
00> -4530
01> -33994
00> -4512
01> -33959
00> -4489
01> -33927
00> -4487
01> -33929
00> -4516
01> -33970
00> -4521
01> -33979
00> -4508
01> -33951
00> -4482
01> -33912
00> -4489
01> -33916
00> -4520
01> -33955
00> -4520
01> -33950
00> -4497
01> -33912
00> -4472
01> -33884
00> -4477
01> -33894
00> -4512
01> -33932
00> -4514
01> -33928
00> -4492
01> -33892
00> -4470
01> -33855
00> -4472
01> -33852
00> -4501
01> -33894
00> -4502
01> -33898
00> -4482
01> -33871
00> -4466
01> -33843
00> -4472
01> -33846
00> -4501
01> -33894
00> -4510
01> -33904
00> -4492
01> -33877
00> -4464
01> -33833
00> -4459
01> -33827
00> -4487
01> -33864
00> -4493
01> -33866
00> -4475
01> -33834
00> -4461
01> -33801
00> -4465
01> -33804
00> -4492
01> -33846
00> -4497
01> -33843
00> -4479
01> -33814
00> -4453
01> -33783
00> -4453
01> -33784
00> -4485
01> -33827
00> -4491
01> -33834
00> -4469
01> -33801
00> -4449
01> -33767
00> -4453
01> -33773
00> -4479
01> -33819
00> -4483
01> -33822
00> -4462
01> -33791
00> -4443
01> -33759
00> -4441
01> -33757
00> -4469
01> -33798
00> -4474
01> -33802
00> -4457
01> -33774
00> -4432
01> -33742
00> -4436
01> -33741
00> -4467
01> -33774
00> -4469
01> -33772
00> -4447
01> -33745
00> -4425
01> -33717
00> -4429
01> -33716
00> -4457
01> -33751
00> -4459
01> -33752
00> -4434
01> -33722
00> -4417
01> -33691
00> -4421
01> -33683
00> -4447
01> -33718
00> -4446
01> -33730
00> -4425
01> -33692
00> -4391
01> -33643
00> -4372
01> -33626
00> -4390
01> -33659
00> -4383
01> -33652
00> -4349
01> -33606
00> -4314
01> -33562
00> -4306
01> -33551
00> -4332
01> -33587
00> -4344
01> -33601
00> -4330
01> -33578
00> -4307
01> -33545
00> -4310
01> -33542
00> -4334
01> -33581
00> -4334
01> -33584
00> -4323
01> -33552
00> -4301
01> -33525
00> -4307
01> -33525
00> -4333
01> -33566
00> -4337
01> -33582
00> -4322
01> -33554
00> -4301
01> -33526
00> -4302
01> -33533
00> -4332
01> -33577
00> -4339
01> -33586
00> -4321
01> -33556
00> -4297
01> -33517
00> -4301
01> -33513
00> -4337
01> -33554
00> -4344
01> -33561
00> -4325
01> -33537
00> -4305
01> -33508
00> -4306
01> -33507
00> -4336
01> -33552
00> -4346
01> -33554
00> -4330
01> -33523
00> -4304
01> -33485
00> -4304
01> -33481
00> -4336
01> -33527
00> -4342
01> -33539
00> -4329
01> -33509
00> -4307
01> -33476
00> -4302
01> -33474
00> -4331
01> -33509
00> -4340
01> -33521
00> -4325
01> -33501
00> -4301
01> -33474
00> -4306
01> -33478
00> -4343
01> -33524
00> -4350
01> -33526
00> -4331
01> -33491
00> -4297
01> -33446
00> -4287
01> -33428
00> -4315
01> -33461
00> -4327
01> -33469
00> -4309
01> -33439
00> -4285
01> -33404
00> -4286
01> -33400
00> -4313
01> -33444
00> -4324
01> -33462
00> -4308
01> -33437
00> -4289
01> -33403
00> -4284
01> -33388
00> -4312
01> -33422
00> -4324
01> -33435
00> -4306
01> -33406
00> -4277
01> -33366
00> -4275
01> -33362
00> -4306
01> -33408
00> -4312
01> -33418
00> -4291
01> -33384
00> -4271
01> -33354
00> -4272
01> -33351
00> -4299
01> -33382
00> -4303
01> -33386
00> -4293
01> -33360
00> -4270
01> -33323
00> -4266
01> -33316
00> -4296
01> -33357
00> -4310
01> -33372
00> -4289
01> -33350
00> -4263
01> -33312
00> -4269
01> -33312
00> -4302
01> -33356
00> -4312
01> -33366
00> -4295
01> -33335
00> -4265
01> -33297
00> -4259
01> -33287
00> -4287
01> -33324
00> -4301
01> -33338
00> -4287
01> -33311
00> -4266
01> -33282
00> -4263
01> -33271
00> -4288
01> -33305
00> -4296
01> -33309
00> -4274
01> -33278
00> -4252
01> -33246
00> -4251
01> -33239
00> -4281
01> -33280
00> -4292
01> -33290
00> -4281
01> -33261
00> -4252
01> -33222
00> -4246
01> -33214
00> -4277
01> -33259
00> -4292
01> -33276
00> -4274
01> -33243
00> -4252
01> -33202
00> -4258
01> -33195
00> -4296
01> -33233
00> -4309
01> -33229
00> -4292
01> -33189
00> -4274
01> -33154
00> -4272
01> -33144
00> -4302
01> -33181
00> -4319
01> -33185
00> -4288
01> -33140
00> -4248
01> -33097
00> -4257
01> -33098
00> -4291
01> -33139
00> -4294
01> -33139
00> -4267
01> -33098
00> -4232
01> -33037
00> -4207
01> -32995
00> -4210
01> -32998
00> -4202
01> -32977
00> -4175
01> -32927
00> -4137
01> -32879
00> -4131
01> -32861
00> -4137
01> -32881
00> -4100
01> -32846
00> -4036
01> -32751
00> -4014
01> -32668
00> -4016
01> -32622
00> -4009
01> -32611
00> -3985
01> -32549
00> -3896
01> -32412
00> -3800
01> -32263
00> -3763
01> -32172
00> -3733
01> -32096
00> -3724
01> -32046
00> -3659
01> -31974
00> -3586
01> -31882
00> -3564
01> -31830
00> -3581
01> -31830
00> -3567
01> -31804
00> -3536
01> -31755
00> -3506
01> -31701
00> -3493
01> -31676
00> -3512
01> -31706
00> -3521
01> -31706
00> -3514
01> -31686
00> -3504
01> -31667
00> -3526
01> -31684
00> -3581
01> -31764
00> -3613
01> -31830
00> -3626
01> -31860
00> -3633
01> -31881
00> -3652
01> -31922
00> -3720
01> -32021
00> -3767
01> -32097
00> -3773
01> -32119
00> -3786
01> -32129
00> -3818
01> -32172
00> -3882
01> -32270
00> -3922
01> -32331
00> -3932
01> -32350
00> -3932
01> -32361
00> -3950
01> -32389
00> -4004
01> -32466
00> -4036
01> -32511
00> -4037
01> -32525
00> -4033
01> -32532
00> -4049
01> -32547
00> -4086
01> -32612
00> -4107
01> -32651
00> -4104
01> -32640
00> -4090
01> -32620
00> -4092
01> -32625
00> -4132
01> -32679
00> -4156
01> -32713
00> -4144
01> -32692
00> -4120
01> -32657
00> -4112
01> -32654
00> -4152
01> -32711
00> -4180
01> -32744
00> -4174
01> -32732
00> -4159
01> -32703
00> -4153
01> -32696
00> -4178
01> -32734
00> -4196
01> -32761
00> -4185
01> -32744
00> -4169
01> -32708
00> -4156
01> -32671
00> -4179
01> -32721
00> -4188
01> -32761
00> -4194
01> -32758
00> -4172
01> -32718
00> -4155
01> -32685
00> -4168
01> -32692
00> -4159
01> -32669
00> -4105
01> -32596
00> -4040
01> -32512
00> -4022
01> -32456
00> -4049
01> -32470
00> -4024
01> -32421
00> -3951
01> -32302
00> -3888
01> -32188
00> -3839
01> -32081
00> -3781
01> -32008
00> -3753
01> -31949
00> -3692
01> -31839
00> -3634
01> -31737
00> -3619
01> -31682
00> -3628
01> -31683
00> -3612
01> -31653
00> -3567
01> -31588
00> -3527
01> -31537
00> -3511
01> -31516
00> -3533
01> -31559
00> -3557
01> -31598
00> -3559
01> -31612
00> -3559
01> -31622
00> -3581
01> -31669
00> -3645
01> -31771
00> -3695
01> -31856
00> -3705
01> -31891
00> -3720
01> -31919
00> -3754
01> -31966
00> -3822
01> -32072
00> -3874
01> -32154
00> -3889
01> -32180
00> -3894
01> -32190
00> -3915
01> -32213
00> -3958
01> -32289
00> -3992
01> -32348
00> -4002
01> -32359
00> -3996
01> -32348
00> -4003
01> -32356
00> -4044
01> -32418
00> -4077
01> -32460
00> -4071
01> -32454
00> -4064
01> -32439
00> -4066
01> -32444
00> -4100
01> -32499
00> -4126
01> -32534
00> -4124
01> -32524
00> -4112
01> -32508
00> -4119
01> -32516
00> -4152
01> -32565
00> -4175
01> -32594
00> -4164
01> -32573
00> -4142
01> -32547
00> -4134
01> -32541
00> -4170
01> -32588
00> -4197
01> -32625
00> -4188
01> -32609
00> -4171
01> -32582
00> -4169
01> -32577
00> -4197
01> -32626
00> -4219
01> -32658
00> -4216
01> -32644
00> -4194
01> -32614
00> -4185
01> -32599
00> -4214
01> -32639
00> -4229
01> -32664
00> -4210
01> -32639
00> -4187
01> -32613
00> -4182
01> -32608
00> -4212
01> -32650
00> -4229
01> -32679
00> -4222
01> -32659
00> -4204
01> -32624
00> -4194
01> -32607
00> -4223
01> -32647
00> -4237
01> -32670
00> -4225
01> -32648
00> -4202
01> -32615
00> -4192
01> -32592
00> -4219
01> -32617
00> -4237
01> -32642
00> -4221
01> -32619
00> -4198
01> -32584
00> -4187
01> -32561
00> -4208
01> -32591
00> -4227
01> -32617
00> -4219
01> -32596
00> -4199
01> -32562
00> -4185
01> -32543
00> -4206
01> -32575
00> -4223
01> -32601
00> -4211
01> -32579
00> -4192
01> -32543
00> -4184
01> -32529
00> -4207
01> -32567
00> -4229
01> -32596
00> -4217
01> -32576
00> -4195
01> -32546
00> -4182
01> -32534
00> -4207
01> -32567
00> -4226
01> -32593
00> -4214
01> -32567
00> -4192
01> -32529
00> -4179
01> -32506
00> -4199
01> -32540
00> -4214
01> -32568
00> -4202
01> -32541
00> -4177
01> -32499
00> -4164
01> -32475
00> -4190
01> -32504
00> -4219
01> -32536
00> -4211
01> -32516
00> -4188
01> -32484
00> -4171
01> -32463
00> -4193
01> -32492
00> -4211
01> -32516
00> -4197
01> -32491
00> -4175
01> -32456
00> -4161
01> -32440
00> -4181
01> -32474
00> -4201
01> -32497
00> -4188
01> -32472
00> -4164
01> -32433
00> -4149
01> -32409
00> -4170
01> -32442
00> -4195
01> -32471
00> -4177
01> -32454
00> -4152
01> -32407
00> -4139
01> -32387
00> -4166
01> -32424
00> -4184
01> -32447
00> -4174
01> -32432
00> -4151
01> -32392
00> -4139
01> -32371
00> -4162
01> -32406
00> -4186
01> -32435
00> -4172
01> -32414
00> -4147
01> -32376
00> -4139
01> -32366
00> -4164
01> -32399
00> -4183
01> -32429
00> -4171
01> -32406
00> -4145
01> -32369
00> -4137
01> -32356
00> -4166
01> -32394
00> -4187
01> -32421
00> -4167
01> -32387
00> -4142
01> -32341
00> -4131
01> -32319
00> -4159
01> -32357
00> -4181
01> -32391
00> -4168
01> -32374
00> -4139
01> -32328
00> -4121
01> -32301
00> -4149
01> -32343
00> -4171
01> -32372
00> -4157
01> -32349
00> -4134
01> -32306
00> -4118
01> -32282
00> -4140
01> -32316
00> -4162
01> -32347
00> -4157
01> -32332
00> -4128
01> -32294
00> -4117
01> -32273
00> -4136
01> -32311
00> -4156
01> -32338
00> -4142
01> -32310
00> -4113
01> -32266
00> -4098
01> -32252
00> -4120
01> -32284
00> -4141
01> -32308
00> -4127
01> -32281
00> -4104
01> -32240
00> -4091
01> -32211
00> -4116
01> -32245
00> -4132
01> -32267
00> -4119
01> -32246
00> -4100
01> -32209
00> -4086
01> -32191
00> -4109
01> -32226
00> -4129
01> -32256
00> -4116
01> -32238
00> -4095
01> -32204
00> -4089
01> -32188
00> -4111
01> -32221
00> -4132
01> -32252
00> -4116
01> -32232
00> -4089
01> -32194
00> -4077
01> -32174
00> -4104
01> -32209
00> -4121
01> -32240
00> -4104
01> -32211
00> -4076
01> -32171
00> -4065
01> -32151
00> -4092
01> -32189
00> -4116
01> -32221
00> -4103
01> -32198
00> -4074
01> -32154
00> -4062
01> -32130
00> -4092
01> -32169
00> -4116
01> -32199
00> -4102
01> -32176
00> -4077
01> -32141
00> -4062
01> -32119
00> -4077
01> -32149
00> -4098
01> -32175
00> -4094
01> -32152
00> -4067
01> -32117
00> -4054
01> -32099
00> -4082
01> -32134
00> -4109
01> -32167
00> -4096
01> -32146
00> -4067
01> -32099
00> -4042
01> -32062
00> -4058
01> -32086
00> -4071
01> -32115
00> -4058
01> -32095
00> -4027
01> -32049
00> -4001
01> -32022
00> -4009
01> -32041
00> -4016
01> -32058
00> -3991
01> -32019
00> -3966
01> -31976
00> -3947
01> -31949
00> -3962
01> -31974
00> -3981
01> -32004
00> -3966
01> -31982
00> -3937
01> -31946
00> -3923
01> -31924
00> -3946
01> -31955
00> -3965
01> -31986
00> -3955
01> -31974
00> -3934
01> -31937
00> -3914
01> -31912
00> -3931
01> -31939
00> -3956
01> -31962
00> -3946
01> -31941
00> -3925
01> -31906
00> -3910
01> -31887
00> -3930
01> -31923
00> -3951
01> -31952
00> -3942
01> -31931
00> -3923
01> -31902
00> -3908
01> -31880
00> -3925
01> -31900
00> -3946
01> -31930
00> -3939
01> -31912
00> -3918
01> -31877
00> -3906
01> -31864
00> -3927
01> -31900
00> -3954
01> -31935
00> -3939
01> -31916
00> -3912
01> -31882
00> -3902
01> -31865
00> -3922
01> -31901
00> -3948
01> -31936
00> -3942
01> -31914
00> -3915
01> -31884
00> -3897
01> -31857
00> -3914
01> -31882
00> -3934
01> -31912
00> -3922
01> -31894
00> -3899
01> -31863
00> -3882
01> -31842
00> -3901
01> -31876
00> -3932
01> -31913
00> -3922
01> -31893
00> -3894
01> -31860
00> -3877
01> -31839
00> -3897
01> -31869
00> -3926
01> -31901
00> -3916
01> -31882
00> -3892
01> -31850
00> -3874
01> -31827
00> -3896
01> -31859
00> -3922
01> -31892
00> -3911
01> -31879
00> -3890
01> -31847
00> -3879
01> -31826
00> -3897
01> -31856
00> -3919
01> -31889
00> -3912
01> -31876
00> -3891
01> -31851
00> -3879
01> -31830
00> -3898
01> -31858
00> -3921
01> -31883
00> -3911
01> -31859
00> -3884
01> -31821
00> -3870
01> -31799
00> -3886
01> -31827
00> -3912
01> -31864
00> -3904
01> -31849
00> -3882
01> -31814
00> -3869
01> -31789
00> -3884
01> -31821
00> -3906
01> -31859
00> -3902
01> -31844
00> -3884
01> -31821
00> -3869
01> -31803
00> -3886
01> -31834
00> -3911
01> -31868
00> -3914
01> -31859
00> -3901
01> -31827
00> -3891
01> -31802
00> -3917
01> -31824
00> -3947
01> -31854
00> -3940
01> -31836
00> -3924

00> -3914
01> -31786
00> -3937
01> -31811
00> -3963
01> -31850
00> -3957
01> -31837
00> -3938
01> -31803
00> -3923
01> -31782
00> -3942
01> -31815
00> -3971
01> -31852
00> -3964
01> -31837
00> -3933
01> -31801
00> -3918
01> -31788
00> -3937
01> -31817
00> -3964
01> -31850
00> -3957
01> -31834
00> -3939
01> -31802
00> -3923
01> -31785
00> -3942
01> -31813
00> -3974
01> -31854
00> -3969
01> -31843
00> -3951
01> -31815
00> -3934
01> -31793
00> -3945
01> -31814
00> -3964
01> -31845
00> -3959
01> -31829
00> -3941
01> -31794
00> -3923
01> -31770
00> -3939
01> -31799
00> -3966
01> -31840
00> -3964
01> -31830
00> -3937
01> -31794
00> -3920
01> -31762
00> -3942
01> -31789
00> -3965
01> -31825
00> -3958
01> -31809
00> -3936
01> -31779
00> -3911
01> -31754
00> -3932
01> -31784
00> -3964
01> -31830
00> -3957
01> -31812
00> -3932
01> -31768
00> -3912
01> -31742
00> -3927
01> -31765
00> -3946
01> -31795
00> -3928
01> -31775
00> -3904
01> -31739
00> -3896
01> -31714
00> -3904
01> -31744
00> -3914
01> -31772
00> -3903
01> -31739
00> -3867
01> -31672
00> -3847
01> -31639
00> -3842
01> -31639
00> -3849
01> -31646
00> -3806
01> -31573
00> -3736
01> -31479
00> -3692
01> -31406
00> -3679
01> -31380
00> -3656
01> -31352
00> -3613
01> -31277
00> -3557
01> -31179
00> -3492
01> -31075
00> -3466
01> -31041
00> -3453
01> -31022
00> -3433
01> -30977
00> -3404
01> -30920
00> -3371
01> -30867
00> -3369
01> -30871
00> -3380
01> -30899
00> -3357
01> -30871
00> -3321
01> -30831
00> -3301
01> -30812
00> -3324
01> -30856
00> -3363
01> -30920
00> -3376
01> -30922
00> -3372
01> -30909
00> -3369
01> -30921
00> -3411
01> -30986
00> -3464
01> -31072
00> -3482
01> -31100
00> -3485
01> -31097
00> -3481
01> -31093
00> -3515
01> -31144
00> -3568
01> -31221
00> -3582
01> -31240
00> -3580
01> -31234
00> -3583
01> -31237
00> -3617
01> -31293
00> -3662
01> -31366
00> -3672
01> -31377
00> -3665
01> -31364
00> -3664
01> -31360
00> -3697
01> -31403
00> -3734
01> -31464
00> -3739
01> -31469
00> -3722
01> -31441
00> -3714
01> -31434
00> -3747
01> -31476
00> -3792
01> -31536
00> -3799
01> -31543
00> -3787
01> -31526
00> -3770
01> -31504
00> -3788
01> -31541
00> -3824
01> -31599
00> -3829
01> -31594
00> -3804
01> -31558
00> -3782
01> -31531
00> -3800
01> -31557
00> -3836
01> -31614
00> -3837
01> -31616
00> -3824
01> -31591
00> -3811
01> -31572
00> -3826
01> -31603
00> -3856
01> -31654
00> -3855
01> -31646
00> -3831
01> -31607
00> -3811
01> -31577
00> -3831
01> -31600
00> -3871
01> -31658
00> -3870
01> -31657
00> -3844
01> -31622
00> -3824
01> -31594
00> -3844
01> -31622
00> -3878
01> -31675
00> -3877
01> -31671
00> -3855
01> -31634
00> -3835
01> -31603
00> -3851
01> -31622
00> -3879
01> -31663
00> -3869
01> -31653
00> -3845
01> -31619
00> -3828
01> -31587
00> -3840
01> -31611
00> -3872
01> -31663
00> -3873
01> -31656
00> -3849
01> -31614
00> -3820
01> -31576
00> -3835
01> -31605
00> -3868
01> -31657
00> -3862
01> -31645
00> -3836
01> -31603
00> -3817
01> -31567
00> -3830
01> -31589
00> -3855
01> -31632
00> -3843
01> -31616
00> -3818
01> -31568
00> -3781
01> -31526
00> -3785
01> -31531
00> -3824
01> -31565
00> -3779
01> -31507
00> -3718
01> -31416
00> -3671
01> -31334
00> -3632
01> -31277
00> -3631
01> -31246
00> -3601
01> -31154
00> -3531
01> -31019
00> -3430
01> -30871
00> -3357
01> -30762
00> -3351
01> -30708
00> -3344
01> -30651
00> -3281
01> -30546
00> -3222
01> -30444
00> -3184
01> -30396
00> -3169
01> -30388
00> -3161
01> -30342
00> -3128
01> -30280
00> -3103
01> -30239
00> -3107
01> -30222
00> -3124
01> -30239
00> -3104
01> -30210
00> -3073
01> -30159
00> -3044
01> -30121
00> -3052
01> -30132
00> -3073
01> -30171
00> -3067
01> -30161
00> -3047
01> -30132
00> -3026
01> -30112
00> -3044
01> -30144
00> -3084
01> -30220
00> -3101
01> -30261
00> -3098
01> -30264
00> -3091
01> -30272
00> -3121
01> -30332
00> -3177
01> -30426
00> -3201
01> -30463
00> -3204
01> -30472
00> -3207
01> -30479
00> -3249
01> -30547
00> -3314
01> -30644
00> -3339
01> -30687
00> -3338
01> -30696
00> -3340
01> -30705
00> -3380
01> -30762
00> -3442
01> -30853
00> -3457
01> -30881
00> -3449
01> -30872
00> -3446
01> -30867
00> -3472
01> -30912
00> -3518
01> -30992
00> -3534
01> -31016
00> -3526
01> -31001
00> -3512
01> -30991
00> -3539
01> -31041
00> -3591
01> -31114
00> -3602
01> -31126
00> -3591
01> -31108
00> -3581
01> -31097
00> -3603
01> -31132
00> -3644
01> -31200
00> -3655
01> -31214
00> -3642
01> -31195
00> -3633
01> -31182
00> -3649
01> -31205
00> -3689
01> -31266
00> -3694
01> -31271
00> -3675
01> -31234
00> -3656
01> -31206
00> -3673
01> -31233
00> -3712
01> -31296
00> -3717
01> -31301
00> -3699
01> -31274
00> -3677
01> -31248
00> -3693
01> -31271
00> -3731
01> -31324
00> -3728
01> -31316
00> -3707
01> -31279
00> -3683
01> -31250
00> -3695
01> -31268
00> -3730
01> -31319
00> -3733
01> -31319
00> -3712
01> -31281
00> -3694
01> -31244
00> -3707
01> -31265
00> -3740
01> -31326
00> -3742
01> -31332
00> -3722
01> -31299
00> -3704
01> -31270
00> -3712
01> -31286
00> -3747
01> -31332
00> -3751
01> -31332
00> -3728
01> -31296
00> -3704
01> -31263
00> -3707
01> -31277
00> -3742
01> -31332
00> -3746
01> -31339
00> -3727
01> -31300
00> -3701
01> -31266
00> -3714
01> -31284
00> -3747
01> -31334
00> -3746
01> -31334
00> -3723
01> -31304
00> -3702
01> -31272
00> -3711
01> -31278
00> -3740
01> -31324
00> -3742
01> -31315
00> -3722
01> -31278
00> -3697
01> -31241
00> -3701
01> -31254
00> -3734
01> -31303
00> -3733
01> -31304
00> -3718
01> -31272
00> -3696
01> -31231
00> -3701
01> -31237
00> -3737
01> -31296
00> -3741
01> -31306
00> -3720
01> -31268
00> -3690
01> -31222
00> -3694
01> -31227
00> -3726
01> -31277
00> -3726
01> -31272
00> -3700
01> -31234
00> -3682
01> -31204
00> -3686
01> -31209
00> -3716
01> -31259
00> -3724
01> -31266
00> -3702
01> -31231
00> -3681
01> -31194
00> -3684
01> -31207
00> -3717
01> -31261
00> -3721
01> -31264
00> -3701
01> -31226
00> -3677
01> -31187
00> -3682
01> -31204
00> -3714
01> -31253
00> -3717
01> -31247
00> -3694
01> -31205
00> -3671
01> -31171
00> -3677
01> -31185
00> -3711
01> -31229
00> -3716
01> -31234
00> -3693
01> -31199
00> -3674
01> -31162
00> -3680
01> -31169
00> -3712
01> -31217
00> -3712
01> -31217
00> -3699
01> -31187
00> -3677
01> -31149
00> -3671
01> -31141
00> -3701
01> -31190
00> -3709
01> -31199
00> -3691
01> -31166
00> -3670
01> -31131
00> -3667
01> -31146
00> -3703
01> -31198
00> -3712
01> -31194
00> -3684
01> -31144
00> -3659
01> -31108
00> -3664
01> -31118
00> -3699
01> -31170
00> -3701
01> -31175
00> -3681
01> -31137
00> -3653
01> -31099
00> -3657
01> -31104
00> -3686
01> -31152
00> -3695
01> -31164
00> -3683
01> -31131
00> -3659
01> -31092
00> -3658
01> -31087
00> -3687
01> -31124
00> -3691
01> -31124
00> -3669
01> -31092
00> -3648
01> -31059
00> -3652
01> -31064
00> -3682
01> -31115
00> -3689
01> -31120
00> -3669
01> -31082
00> -3644
01> -31044
00> -3646
01> -31048
00> -3680
01> -31096
00> -3687
01> -31102
00> -3666
01> -31072
00> -3640
01> -31040
00> -3645
01> -31042
00> -3679
01> -31086
00> -3688
01> -31097
00> -3667
01> -31060
00> -3644
01> -31027
00> -3654
01> -31034
00> -3685
01> -31083
00> -3684
01> -31079
00> -3666
01> -31046
00> -3647
01> -31020
00> -3646
01> -31019
00> -3679
01> -31066
00> -3686
01> -31072
00> -3665
01> -31036
00> -3642
01> -31003
00> -3642
01> -30994
00> -3672
01> -31029
00> -3670
01> -31025
00> -3641
01> -30987
00> -3622
01> -30959
00> -3631
01> -30976
00> -3664
01> -31032
00> -3669
01> -31040
00> -3651
01> -31006
00> -3624
01> -30969
00> -3631
01> -30976
00> -3664
01> -31030
00> -3664
01> -31028
00> -3641
01> -30981
00> -3616
01> -30940
00> -3614
01> -30934
00> -3647
01> -30982
00> -3658
01> -30988
00> -3637
01> -30955
00> -3607
01> -30912
00> -3604
01> -30909
00> -3639
01> -30955
00> -3646
01> -30966
00> -3626
01> -30931
00> -3603
01> -30897
00> -3601
01> -30899
00> -3630
01> -30941
00> -3637
01> -30949
00> -3619
01> -30919
00> -3594
01> -30879
00> -3599
01> -30875
00> -3632
01> -30925
00> -3639
01> -30932
00> -3619
01> -30897
00> -3594
01> -30857
00> -3592
01> -30857
00> -3627
01> -30905
00> -3637
01> -30917
00> -3619
01> -30886
00> -3592
01> -30846
00> -3584
01> -30837
00> -3612
01> -30881
00> -3628
01> -30894
00> -3618
01> -30864
00> -3602
01> -30831
00> -3601
01> -30844
00> -3626
01> -30897
00> -3631
01> -30904
00> -3615
01> -30866
00> -3594
01> -30831
00> -3591
01> -30824
00> -3620
01> -30864
00> -3634
01> -30873
00> -3617
01> -30842
00> -3597
01> -30809
00> -3597
01> -30804
00> -3627
01> -30853
00> -3637
01> -30862
00> -3618
01> -30832
00> -3593
01> -30797
00> -3594
01> -30789
00> -3628
01> -30832
00> -3641
01> -30846
00> -3619
01> -30808
00> -3592
01> -30763
00> -3586
01> -30752
00> -3612
01> -30794
00> -3625
01> -30811
00> -3611
01> -30787
00> -3594
01> -30754
00> -3595
01> -30758
00> -3623
01> -30803
00> -3626
01> -30804
00> -3606
01> -30771
00> -3587
01> -30736
00> -3582
01> -30733
00> -3613
01> -30782
00> -3624
01> -30789
00> -3602
01> -30750
00> -3574
01> -30713
00> -3571
01> -30714
00> -3605
01> -30763
00> -3616
01> -30769
00> -3596
01> -30735
00> -3575
01> -30699
00> -3568
01> -30693
00> -3599
01> -30737
00> -3614
01> -30750
00> -3589
01> -30713
00> -3566
01> -30671
00> -3568
01> -30662
00> -3599
01> -30705
00> -3612
01> -30711
00> -3592
01> -30673
00> -3567
01> -30634
00> -3560
01> -30627
00> -3589
01> -30674
00> -3605
01> -30686
00> -3585
01> -30654
00> -3565
01> -30621
00> -3557
01> -30608
00> -3582
01> -30647
00> -3593
01> -30661
00> -3574
01> -30623
00> -3547
01> -30574
00> -3534
01> -30556
00> -3560
01> -30596
00> -3572
01> -30611
00> -3557
01> -30580
00> -3539
01> -30544
00> -3535
01> -30541
00> -3561
01> -30587
00> -3573
01> -30600
00> -3562
01> -30573
00> -3544
01> -30541
00> -3538
01> -30532
00> -3568
01> -30582
00> -3582
01> -30589
00> -3562
01> -30555
00> -3542
01> -30521
00> -3536
01> -30514
00> -3560
01> -30554
00> -3573
01> -30567
00> -3554
01> -30528
00> -3527
01> -30487
00> -3524
01> -30483
00> -3556
01> -30527
00> -3562
01> -30533
00> -3541
01> -30501
00> -3516
01> -30461
00> -3514
01> -30456
00> -3544
01> -30506
00> -3556
01> -30519
00> -3537
01> -30485
00> -3511
01> -30440
00> -3509
01> -30427
00> -3542
01> -30481
00> -3557
01> -30504
00> -3547
01> -30477
00> -3524
01> -30436
00> -3512
01> -30420
00> -3542
01> -30461
00> -3559
01> -30483
00> -3544
01> -30451
00> -3519
01> -30417
00> -3512
01> -30407
00> -3545
01> -30456
00> -3562
01> -30472
00> -3542
01> -30434
00> -3518
01> -30396
00> -3511
01> -30384
00> -3537
01> -30422
00> -3548
01> -30429
00> -3529
01> -30392
00> -3502
01> -30354
00> -3494
01> -30339
00> -3527
01> -30384
00> -3542
01> -30400
00> -3529
01> -30364
00> -3504
01> -30326
00> -3490
01> -30311
00> -3519
01> -30349
00> -3533
01> -30365
00> -3517
01> -30332
00> -3494
01> -30296
00> -3493
01> -30289
00> -3521
01> -30342
00> -3534
01> -30356
00> -3514
01> -30321
00> -3482
01> -30270
00> -3462
01> -30236
00> -3484
01> -30267
00> -3503
01> -30272
00> -3477
01> -30221
00> -3444
01> -30154
00> -3414
01> -30097
00> -3412
01> -30086
00> -3399
01> -30054
00> -3351
01> -29972
00> -3299
01> -29884
00> -3261
01> -29817
00> -3260
01> -29802
00> -3247
01> -29769
00> -3199
01> -29696
00> -3151
01> -29622
00> -3112
01> -29562
00> -3111
01> -29544
00> -3092
01> -29505
00> -3048
01> -29426
00> -2997
01> -29344
00> -2960
01> -29286
00> -2961
01> -29289
00> -2953
01> -29270
00> -2917
01> -29208
00> -2876
01> -29139
00> -2841
01> -29083
00> -2839
01> -29074
00> -2835
01> -29065
00> -2802
01> -29007
00> -2757
01> -28946
00> -2734
01> -28911
00> -2752
01> -28939
00> -2757
01> -28951
00> -2722
01> -28908
00> -2686
01> -28844
00> -2664
01> -28806
00> -2682
01> -28831
00> -2686
01> -28844
00> -2669
01> -28823
00> -2646
01> -28784
00> -2629
01> -28748
00> -2652
01> -28771
00> -2664
01> -28785
00> -2644
01> -28759
00> -2616
01> -28724
00> -2601
01> -28699
00> -2623
01> -28731
00> -2635
01> -28755
00> -2617
01> -28730
00> -2594
01> -28703
00> -2575
01> -28664
00> -2590
01> -28683
00> -2603
01> -28706
00> -2586
01> -28676
00> -2554
01> -28606
00> -2537
01> -28576
00> -2553
01> -28605
00> -2562
01> -28639
00> -2544
01> -28619
00> -2517
01> -28578
00> -2504
01> -28555
00> -2522
01> -28594
00> -2535
01> -28634
00> -2521
01> -28618
00> -2497
01> -28560
00> -2478
01> -28532
00> -2503
01> -28593
00> -2519
01> -28601
00> -2499
01> -28519
00> -2467
01> -28478
00> -2451
01> -28486
00> -2483
01> -28531
00> -2496
01> -28525
00> -2469
01> -28507
00> -2441
01> -28484
00> -2424
01> -28431
00> -2449
01> -28437
00> -2459
01> -28463
00> -2437
01> -28468
00> -2416
01> -28457
00> -2406
01> -28424
00> -2433
01> -28437
00> -2446
01> -28461
00> -2427
01> -28435
00> -2399
01> -28374
00> -2386
01> -28388
00> -2419
01> -28376
00> -2430
01> -28348
00> -2413
01> -28357
00> -2392
01> -28324
00> -2368
01> -28271
00> -2393
01> -28311
00> -2412
01> -28354
00> -2399
01> -28362
00> -2376
01> -28302
00> -2365
01> -28261
00> -2397
01> -28307
00> -2421
01> -28356
00> -2411
01> -28371
00> -2388
01> -28342
00> -2365
01> -28240
00> -2385
01> -28234
00> -2403
01> -28264
00> -2389
01> -28253
00> -2368
01> -28213
00> -2358
01> -28205
00> -2385
01> -28267
00> -2404
01> -28284
00> -2387
01> -28242
00> -2366
01> -28201
00> -2347
01> -28192
00> -2373
01> -28236
00> -2399
01> -28239
00> -2382
01> -28169
00> -2352
01> -28129
00> -2337
01> -28136
00> -2370
01> -28180
00> -2390
01> -28196
00> -2375
01> -28166
00> -2348
01> -28128
00> -2331
01> -28100
00> -2362
01> -28144
00> -2387
01> -28199
00> -2382
01> -28154
00> -2354
01> -28094
00> -2333
01> -28054
00> -2352
01> -28087
00> -2374
01> -28115
00> -2362
01> -28104
00> -2337
01> -28072
00> -2326
01> -28050
00> -2356
01> -28053
00> -2381
01> -28076
00> -2367
01> -28074
00> -2341
01> -28047
00> -2322
01> -27981
00> -2342
01> -27993
00> -2362
01> -28011
00> -2353
01> -27992
00> -2333
01> -27964
00> -2317
01> -27962
00> -2347
01> -27992
00> -2378
01> -28024
00> -2367
01> -27997
00> -2350
01> -27964
00> -2332
01> -27966
00> -2354
01> -27996
00> -2387
01> -28001
00> -2370
01> -27941
00> -2342
01> -27909
00> -2328
01> -27901
00> -2352
01> -27937
00> -2370
01> -27967
00> -2354
01> -27937
00> -2331
01> -27894
00> -2313
01> -27875
00> -2341
01> -27896
00> -2367
01> -27927
00> -2356
01> -27902
00> -2331
01> -27864
00> -2312
01> -27830
00> -2340
01> -27874
00> -2362
01> -27919
00> -2349
01> -27869
00> -2327
01> -27814
00> -2312
01> -27796
00> -2337
01> -27852
00> -2364
01> -27893
00> -2351
01> -27846
00> -2326
01> -27793
00> -2311
01> -27757
00> -2339
01> -27791
00> -2369
01> -27835
00> -2356
01> -27817
00> -2331
01> -27791
00> -2317
01> -27761
00> -2337
01> -27774
00> -2360
01> -27807
00> -2351
01> -27801
00> -2327
01> -27768
00> -2314
01> -27731
00> -2334
01> -27751
00> -2360
01> -27790
00> -2354
01> -27757
00> -2337
01> -27719
00> -2321
01> -27696
00> -2342
01> -27734
00> -2362
01> -27798
00> -2354
01> -27766
00> -2334
01> -27701
00> -2319
01> -27666
00> -2342
01> -27694
00> -2361
01> -27711
00> -2338
01> -27699
00> -2314
01> -27670
00> -2304
01> -27642
00> -2331
01> -27667
00> -2357
01> -27698
00> -2347
01> -27674
00> -2322
01> -27631
00> -2310
01> -27611
00> -2336
01> -27656
00> -2365
01> -27703
00> -2352
01> -27697
00> -2327
01> -27637
00> -2303
01> -27577
00> -2323
01> -27591
00> -2352
01> -27623
00> -2339
01> -27597
00> -2317
01> -27564
00> -2299
01> -27564
00> -2327
01> -27602
00> -2357
01> -27637
00> -2344
01> -27613
00> -2319
01> -27546
00> -2308
01> -27502
00> -2331
01> -27548
00> -2359
01> -27597
00> -2347
01> -27571
00> -2317
01> -27528
00> -2294
01> -27508
00> -2317
01> -27525
00> -2347
01> -27553
00> -2335
01> -27539
00> -2312
01> -27504
00> -2294
01> -27466
00> -2309
01> -27491
00> -2337
01> -27532
00> -2326
01> -27529
00> -2300
01> -27487
00> -2285
01> -27423
00> -2305
01> -27452
00> -2337
01> -27499
00> -2331
01> -27494
00> -2310
01> -27459
00> -2292
01> -27430
00> -2312
01> -27459
00> -2339
01> -27502
00> -2327
01> -27474
00> -2304
01> -27428
00> -2285
01> -27399
00> -2309
01> -27446
00> -2341
01> -27502
00> -2337
01> -27461
00> -2314
01> -27407
00> -2296
01> -27387
00> -2312
01> -27426
00> -2341
01> -27456
00> -2334
01> -27418
00> -2315
01> -27376
00> -2297
01> -27359
00> -2317
01> -27397
00> -2348
01> -27448
00> -2341
01> -27424
00> -2312
01> -27372
00> -2292
01> -27338
00> -2306
01> -27372
00> -2336
01> -27416
00> -2336
01> -27406
00> -2318
01> -27355
00> -2299
01> -27321
00> -2312
01> -27356
00> -2344
01> -27402
00> -2332
01> -27384
00> -2306
01> -27372
00> -2295
01> -27357
00> -2319
01> -27369
00> -2342
01> -27394
00> -2332
01> -27373
00> -2310
01> -27319
00> -2287
01> -27292
00> -2302
01> -27336
00> -2335
01> -27375
00> -2334
01> -27355
00> -2307
01> -27306
00> -2284
01> -27265
00> -2301
01> -27299
00> -2332
01> -27367
00> -2330
01> -27373
00> -2302
01> -27304
00> -2282
01> -27245
00> -2304
01> -27274
00> -2338
01> -27328
00> -2335
01> -27281
00> -2301
01> -27238
00> -2279
01> -27227
00> -2300
01> -27250
00> -2325
01> -27282
00> -2321
01> -27281
00> -2300
01> -27260
00> -2286
01> -27227
00> -2304
01> -27252
00> -2336
01> -27285
00> -2330
01> -27265
00> -2307
01> -27226
00> -2286
01> -27201
00> -2304
01> -27242
00> -2337
01> -27280
00> -2332
01> -27259
00> -2307
01> -27225
00> -2292
01> -27197
00> -2310
01> -27212
00> -2339
01> -27248
00> -2335
01> -27236
00> -2306
01> -27191
00> -2284
01> -27161
00> -2304
01> -27175
00> -2337
01> -27222
00> -2328
01> -27207
00> -2308
01> -27174
00> -2294
01> -27147
00> -2311
01> -27184
00> -2337
01> -27240
00> -2332
01> -27212
00> -2312
01> -27155
00> -2294
01> -27132
00> -2307
01> -27148
00> -2338
01> -27186
00> -2334
01> -27176
00> -2309
01> -27156
00> -2294
01> -27118
00> -2320
01> -27137
00> -2351
01> -27186
00> -2347
01> -27163
00> -2319
01> -27127
00> -2300
01> -27101
00> -2317
01> -27111
00> -2344
01> -27146
00> -2342
01> -27126
00> -2316
01> -27082
00> -2294
01> -27052
00> -2313
01> -27084
00> -2349
01> -27152
00> -2345
01> -27153
00> -2321
01> -27096
00> -2299
01> -27042
00> -2309
01> -27072
00> -2341
01> -27126
00> -2339
01> -27114
00> -2312
01> -27070
00> -2291
01> -27037
00> -2308
01> -27079
00> -2341
01> -27128
00> -2337
01> -27096
00> -2314
01> -27032
00> -2289
01> -27000
00> -2303
01> -27027
00> -2339
01> -27081
00> -2338
01> -27075
00> -2312
01> -27031
00> -2284
01> -26997
00> -2297
01> -27019
00> -2327
01> -27054
00> -2307
01> -27030
00> -2263
01> -26981
00> -2228
01> -26934
00> -2231
01> -26927
00> -2257
01> -26937
00> -2242
01> -26897
00> -2192
01> -26808
00> -2138
01> -26713
00> -2107
01> -26661
00> -2083
01> -26619
00> -2034
01> -26517
00> -1980
01> -26424
00> -1955
01> -26355
00> -1964
01> -26329
00> -1976
01> -26329
00> -1948
01> -26277
00> -1919
01> -26217
00> -1900
01> -26184
00> -1915
01> -26191
00> -1952
01> -26216
00> -1953
01> -26195
00> -1933
01> -26143
00> -1924
01> -26111
00> -1955
01> -26139
00> -1988
01> -26193
00> -1987
01> -26191
00> -1982
01> -26176
00> -1978
01> -26171
00> -2010
01> -26202
00> -2064
01> -26275
00> -2087
01> -26319
00> -2093
01> -26321
00> -2113
01> -26299
00> -2159
01> -26341
00> -2222
01> -26424
00> -2262
01> -26471
00> -2271
01> -26477
00> -2282
01> -26494
00> -2324
01> -26562
00> -2383
01> -26652
00> -2406
01> -26686
00> -2399
01> -26677
00> -2396
01> -26670
00> -2423
01> -26709
00> -2470
01> -26777
00> -2486
01> -26776
00> -2474
01> -26747
00> -2462
01> -26747
00> -2491
01> -26801
00> -2539
01> -26871
00> -2549
01> -26900
00> -2554
01> -26904
00> -2560
01> -26920
00> -2594
01> -26993
00> -2657
01> -27099
00> -2697
01> -27152
00> -2714
01> -27182
00> -2733
01> -27230
00> -2782
01> -27324
00> -2851
01> -27431
00> -2885
01> -27488
00> -2892
01> -27512
00> -2897
01> -27537
00> -2944
01> -27620
00> -3011
01> -27724
00> -3042
01> -27776
00> -3047
01> -27794
00> -3055
01> -27807
00> -3091
01> -27866
00> -3147
01> -27971
00> -3169
01> -28010
00> -3160
01> -28005
00> -3161
01> -28021
00> -3199
01> -28089
00> -3249
01> -28174
00> -3270
01> -28204
00> -3265
01> -28199
00> -3262
01> -28197
00> -3289
01> -28239
00> -3339
01> -28322
00> -3357
01> -28347
00> -3340
01> -28322
00> -3316
01> -28293
00> -3326
01> -28312
00> -3366
01> -28362
00> -3369
01> -28366
00> -3340
01> -28327
00> -3314
01> -28287
00> -3327
01> -28312
00> -3369
01> -28381
00> -3372
01> -28386
00> -3346
01> -28349
00> -3315
01> -28303
00> -3317
01> -28301
00> -3347
01> -28340
00> -3347
01> -28331
00> -3329
01> -28297
00> -3309
01> -28264
00> -3312
01> -28276
00> -3344
01> -28327
00> -3351
01> -28325
00> -3329
01> -28294
00> -3302
01> -28261
00> -3316
01> -28285
00> -3355
01> -28344
00> -3351
01> -28336
00> -3323
01> -28290
00> -3302
01> -28253
00> -3312
01> -28262
00> -3348
01> -28312
00> -3349
01> -28311
00> -3326
01> -28274
00> -3303
01> -28247
00> -3309
01> -28258
00> -3345
01> -28314
00> -3349
01> -28318
00> -3324
01> -28274
00> -3297
01> -28232
00> -3298
01> -28234
00> -3331
01> -28282
00> -3341
01> -28291
00> -3324
01> -28266
00> -3304
01> -28236
00> -3311
01> -28244
00> -3341
01> -28296
00> -3354
01> -28306
00> -3337
01> -28272
00> -3314
01> -28233
00> -3321
01> -28239
00> -3354
01> -28293
00> -3356
01> -28299
00> -3331
01> -28259
00> -3304
01> -28215
00> -3306
01> -28211
00> -3336
01> -28250
00> -3346
01> -28253
00> -3330
01> -28226
00> -3309
01> -28200
00> -3317
01> -28210
00> -3349
01> -28258
00> -3346
01> -28252
00> -3319
01> -28206
00> -3297
01> -28172
00> -3305
01> -28177
00> -3343
01> -28230
00> -3349
01> -28242
00> -3331
01> -28207
00> -3311
01> -28169
00> -3311
01> -28170
00> -3341
01> -28216
00> -3349
01> -28222
00> -3331
01> -28184
00> -3316
01> -28152
00> -3322
01> -28161
00> -3350
01> -28207
00> -3348
01> -28205
00> -3329
01> -28170
00> -3305
01> -28133
00> -3306
01> -28142
00> -3339
01> -28193
00> -3349
01> -28195
00> -3330
01> -28160
00> -3304
01> -28117
00> -3297
01> -28109
00> -3322
01> -28144
00> -3327
01> -28146
00> -3309
01> -28114
00> -3286
01> -28075
00> -3292
01> -28078
00> -3331
01> -28134
00> -3339
01> -28149
00> -3319
01> -28114
00> -3292
01> -28071
00> -3294
01> -28072
00> -3327
01> -28121
00> -3337
01> -28128
00> -3317
01> -28092
00> -3297
01> -28057
00> -3302
01> -28067
00> -3335
01> -28113
00> -3337
01> -28108
00> -3312
01> -28066
00> -3284
01> -28026
00> -3279
01> -28030
00> -3312
01> -28081
00> -3317
01> -28087
00> -3304
01> -28065
00> -3289
01> -28037
00> -3302
01> -28043
00> -3337
01> -28088
00> -3339
01> -28086
00> -3315
01> -28047
00> -3291
01> -28008
00> -3291
01> -28007
00> -3324
01> -28057
00> -3338
01> -28066
00> -3322
01> -28040
00> -3301
01> -28002
00> -3300
01> -27997
00> -3330
01> -28045
00> -3340
01> -28056
00> -3321
01> -28016
00> -3295
01> -27975
00> -3296
01> -27972
00> -3324
01> -28015
00> -3328
01> -28026
00> -3313
01> -27997
00> -3291
01> -27961
00> -3286
01> -27963
00> -3319
01> -28009
00> -3329
01> -28020
00> -3313
01> -27988
00> -3287
01> -27955
00> -3285
01> -27952
00> -3326
01> -28001
00> -3339
01> -28012
00> -3317
01> -27979
00> -3290
01> -27941
00> -3286
01> -27931
00> -3315
01> -27971
00> -3322
01> -27976
00> -3306
01> -27942
00> -3284
01> -27914
00> -3286
01> -27922
00> -3321
01> -27972
00> -3331
01> -27976
00> -3306
01> -27926
00> -3276
01> -27884
00> -3271
01> -27874
00> -3299
01> -27917
00> -3306
01> -27929
00> -3284
01> -27895
00> -3258
01> -27861
00> -3266
01> -27871
00> -3305
01> -27929
00> -3315
01> -27936
00> -3291
01> -27890
00> -3262
01> -27851
00> -3264
01> -27853
00> -3299
01> -27907
00> -3312
01> -27917
00> -3290
01> -27880
00> -3265
01> -27839
00> -3265
01> -27836
00> -3299
01> -27892
00> -3312
01> -27905
00> -3294
01> -27867
00> -3271
01> -27836
00> -3268
01> -27837
00> -3297
01> -27877
00> -3307
01> -27884
00> -3290
01> -27852
00> -3265
01> -27814
00> -3261
01> -27805
00> -3294
01> -27857
00> -3311
01> -27882
00> -3292
01> -27850
00> -3264
01> -27807
00> -3252
01> -27792
00> -3281
01> -27830
00> -3292
01> -27840
00> -3281
01> -27816
00> -3261
01> -27786
00> -3261
01> -27784
00> -3287
01> -27829
00> -3296
01> -27832
00> -3274
01> -27794
00> -3251
01> -27759
00> -3246
01> -27758
00> -3279
01> -27806
00> -3294
01> -27825
00> -3277
01> -27797
00> -3259
01> -27762
00> -3264
01> -27762
00> -3299
01> -27812
00> -3306
01> -27824
00> -3285
01> -27787
00> -3257
01> -27742
00> -3249
01> -27729
00> -3282
01> -27781
00> -3298
01> -27799
00> -3276
01> -27762
00> -3249
01> -27721
00> -3245
01> -27716
00> -3281
01> -27762
00> -3293
01> -27771
00> -3275
01> -27736
00> -3252
01> -27697
00> -3249
01> -27699
00> -3281
01> -27749
00> -3293
01> -27764
00> -3273
01> -27725
00> -3244
01> -27677
00> -3239
01> -27672
00> -3268
01> -27725
00> -3285
01> -27749
00> -3273
01> -27725
00> -3254
01> -27688
00> -3247
01> -27682
00> -3277
01> -27730
00> -3294
01> -27744
00> -3268
01> -27710
00> -3242
01> -27675
00> -3242
01> -27670
00> -3275
01> -27722
00> -3291
01> -27747
00> -3273
01> -27712
00> -3248
01> -27672
00> -3242
01> -27663
00> -3267
01> -27700
00> -3274
01> -27709
00> -3258
01> -27674
00> -3239
01> -27639
00> -3232
01> -27635
00> -3260
01> -27687
00> -3277
01> -27712
00> -3254
01> -27673
00> -3231
01> -27622
00> -3224
01> -27603
00> -3254
01> -27659
00> -3274
01> -27690
00> -3265
01> -27662
00> -3243
01> -27631
00> -3236
01> -27627
00> -3272
01> -27681
00> -3289
01> -27697
00> -3267
01> -27659
00> -3240
01> -27624
00> -3235
01> -27617
00> -3272
01> -27667
00> -3288
01> -27687
00> -3269
01> -27661
00> -3243
01> -27624
00> -3231
01> -27611
00> -3263
01> -27652
00> -3279
01> -27672
00> -3256
01> -27637
00> -3224
01> -27592
00> -3214
01> -27578
00> -3243
01> -27621
00> -3272
01> -27655
00> -3257
01> -27627
00> -3224
01> -27591
00> -3217
01> -27589
00> -3247
01> -27636
00> -3264
01> -27651
00> -3248
01> -27616
00> -3222
01> -27576
00> -3214
01> -27562
00> -3242
01> -27606
00> -3256
01> -27632
00> -3241
01> -27603
00> -3219
01> -27569
00> -3211
01> -27551
00> -3239
01> -27599
00> -3258
01> -27629
00> -3247
01> -27601
00> -3221
01> -27561
00> -3208
01> -27544
00> -3233
01> -27596
00> -3255
01> -27624
00> -3243
01> -27587
00> -3216
01> -27547
00> -3206
01> -27529
00> -3233
01> -27567
00> -3253
01> -27589
00> -3239
01> -27566
00> -3217
01> -27541
00> -3209
01> -27526
00> -3235
01> -27563
00> -3251
01> -27582
00> -3234
01> -27558
00> -3212
01> -27524
00> -3204
01> -27509
00> -3231
01> -27547
00> -3252
01> -27572
00> -3238
01> -27541
00> -3221
01> -27507
00> -3211
01> -27498
00> -3244
01> -27548
00> -3261
01> -27570
00> -3245
01> -27536
00> -3214
01> -27494
00> -3203
01> -27477
00> -3235
01> -27522
00> -3257
01> -27552
00> -3239
01> -27525
00> -3216
01> -27484
00> -3205
01> -27471
00> -3226
01> -27511
00> -3246
01> -27533
00> -3227
01> -27503
00> -3207
01> -27464
00> -3201
01> -27452
00> -3230
01> -27499
00> -3254
01> -27531
00> -3239
01> -27502
00> -3212
01> -27457
00> -3199
01> -27436
00> -3222
01> -27476
00> -3234
01> -27499
00> -3217
01> -27466
00> -3197
01> -27429
00> -3185
01> -27418
00> -3210
01> -27455
00> -3231
01> -27484
00> -3221
01> -27462
00> -3195
01> -27422
00> -3175
01> -27399
00> -3201
01> -27439
00> -3223
01> -27476
00> -3216
01> -27449
00> -3195
01> -27412
00> -3187
01> -27407
00> -3216
01> -27447
00> -3234
01> -27471
00> -3215
01> -27439
00> -3194
01> -27405
00> -3186
01> -27392
00> -3208
01> -27421
00> -3229
01> -27448
00> -3213
01> -27422
00> -3188
01> -27386
00> -3178
01> -27374
00> -3205
01> -27422
00> -3225
01> -27451
00> -3214
01> -27418
00> -3189
01> -27371
00> -3175
01> -27347
00> -3202
01> -27388
00> -3227
01> -27417
00> -3209
01> -27387
00> -3182
01> -27346
00> -3164
01> -27328
00> -3188
01> -27367
00> -3209
01> -27407
00> -3202
01> -27383
00> -3177
01> -27338
00> -3166
01> -27322
00> -3192
01> -27371
00> -3214
01> -27399
00> -3203
01> -27371
00> -3186
01> -27330
00> -3176
01> -27311
00> -3203
01> -27353
00> -3224
01> -27381
00> -3202
01> -27342
00> -3174
01> -27299
00> -3159
01> -27279
00> -3179
01> -27312
00> -3202
01> -27346
00> -3195
01> -27328
00> -3174
01> -27291
00> -3166
01> -27272
00> -3191
01> -27304
00> -3214
01> -27338
00> -3204
01> -27322
00> -3176
01> -27281
00> -3158
01> -27256
00> -3178
01> -27294
00> -3200
01> -27321
00> -3189
01> -27300
00> -3167
01> -27272
00> -3154
01> -27252
00> -3173
01> -27277
00> -3201
01> -27310
00> -3196
01> -27296
00> -3175
01> -27269
00> -3163
01> -27249
00> -3184
01> -27282
00> -3206
01> -27313
00> -3195
01> -27282
00> -3171
01> -27242
00> -3152
01> -27215
00> -3176
01> -27247
00> -3198
01> -27279
00> -3188
01> -27257
00> -3163
01> -27226
00> -3144
01> -27196
00> -3167
01> -27228
00> -3187
01> -27256
00> -3171
01> -27234
00> -3149
01> -27197
00> -3139
01> -27182
00> -3166
01> -27212
00> -3182
01> -27233
00> -3164
01> -27200
00> -3142
01> -27160
00> -3129
01> -27137
00> -3151
01> -27171
00> -3173
01> -27205
00> -3166
01> -27181
00> -3146
01> -27153
00> -3132
01> -27132
00> -3155
01> -27166
00> -3178
01> -27201
00> -3166
01> -27177
00> -3148
01> -27139
00> -3129
01> -27110
00> -3151
01> -27143
00> -3172
01> -27170
00> -3159
01> -27137
00> -3135
01> -27097
00> -3122
01> -27079
00> -3146
01> -27119
00> -3172
01> -27150
00> -3160
01> -27123
00> -3131
01> -27085
00> -3114
01> -27059
00> -3137
01> -27092
00> -3162
01> -27127
00> -3153
01> -27107
00> -3129
01> -27066
00> -3112
01> -27038
00> -3126
01> -27065
00> -3152
01> -27100
00> -3143
01> -27092
00> -3119
01> -27058
00> -3107
01> -27030
00> -3129
01> -27066
00> -3154
01> -27102
00> -3141
01> -27076
00> -3118
01> -27036
00> -3103
01> -27007
00> -3123
01> -27036
00> -3151
01> -27072
00> -3139
01> -27048
00> -3116
01> -27009
00> -3109
01> -26997
00> -3130
01> -27031
00> -3156
01> -27063
00> -3147
01> -27039
00> -3118
01> -26994
00> -3097
01> -26963
00> -3119
01> -26992
00> -3145
01> -27029
00> -3134
01> -27007
00> -3113
01> -26976
00> -3098
01> -26951
00> -3119
01> -26978
00> -3148
01> -27014
00> -3140
01> -26994
00> -3117
01> -26958
00> -3101
01> -26935
00> -3121
01> -26958
00> -3143
01> -26993
00> -3134
01> -26977
00> -3110
01> -26937
00> -3095
01> -26917
00> -3111
01> -26948
00> -3138
01> -26974
00> -3131
01> -26952
00> -3109
01> -26911
00> -3087
01> -26882
00> -3099
01> -26897
00> -3127
01> -26937
00> -3121
01> -26926
00> -3101
01> -26886
00> -3081
01> -26861
00> -3097
01> -26891
00> -3122
01> -26929
00> -3116
01> -26915
00> -3099
01> -26881
00> -3096
01> -26859
00> -3112
01> -26887
00> -3135
01> -26914
00> -3128
01> -26889
00> -3100
01> -26842
00> -3076
01> -26809
00> -3096
01> -26841
00> -3125
01> -26887
00> -3120
01> -26876
00> -3097
01> -26832
00> -3077
01> -26799
00> -3099
01> -26832
00> -3129
01> -26876
00> -3127
01> -26858
00> -3097
01> -26811
00> -3072
01> -26786
00> -3092
01> -26812
00> -3119
01> -26844
00> -3114
01> -26827
00> -3087
01> -26782
00> -3070
01> -26746
00> -3084
01> -26767
00> -3110
01> -26799
00> -3101
01> -26774
00> -3076
01> -26719
00> -3056
01> -26674
00> -3071
01> -26684
00> -3091
01> -26711
00> -3081
01> -26685
00> -3055
01> -26640
00> -3036
01> -26609
00> -3052
01> -26634
00> -3081
01> -26674
00> -3079
01> -26665
00> -3062
01> -26629
00> -3047
01> -26598
00> -3059
01> -26618
00> -3082
01> -26651
00> -3076
01> -26629
00> -3052
01> -26594
00> -3033
01> -26565
00> -3050
01> -26597
00> -3081
01> -26644
00> -3080
01> -26632
00> -3060
01> -26589
00> -3039
01> -26562
00> -3056
01> -26582
00> -3088
01> -26626
00> -3087
01> -26611
00> -3058
01> -26575
00> -3035
01> -26549
00> -3055
01> -26576
00> -3089
01> -26617
00> -3083
01> -26596
00> -3053
01> -26554
00> -3034
01> -26526
00> -3048
01> -26542
00> -3080
01> -26575
00> -3082
01> -26566
00> -3062
01> -26536
00> -3040
01> -26501
00> -3050
01> -26520
00> -3077
01> -26562
00> -3081
01> -26556
00> -3062
01> -26520
00> -3040
01> -26482
00> -3051
01> -26507
00> -3080
01> -26554
00> -3074
01> -26536
00> -3053
01> -26489
00> -3031
01> -26451
00> -3041
01> -26476
00> -3073
01> -26524
00> -3075
01> -26512
00> -3053
01> -26473
00> -3032
01> -26442
00> -3040
01> -26455
00> -3066
01> -26495
00> -3062
01> -26482
00> -3043
01> -26447
00> -3025
01> -26411
00> -3039
01> -26428
00> -3069
01> -26470
00> -3067
01> -26456
00> -3042
01> -26420
00> -3026
01> -26395
00> -3039
01> -26415
00> -3070
01> -26461
00> -3068
01> -26449
00> -3043
01> -26404
00> -3016
01> -26376
00> -3030
01> -26393
00> -3062
01> -26433
00> -3061
01> -26419
00> -3037
01> -26385
00> -3021
01> -26356
00> -3033
01> -26373
00> -3059
01> -26414
00> -3052
01> -26397
00> -3028
01> -26348
00> -3007
01> -26309
00> -3017
01> -26324
00> -3051
01> -26373
00> -3049
01> -26366
00> -3027
01> -26327
00> -3007
01> -26297
00> -3020
01> -26312
00> -3049
01> -26356
00> -3048
01> -26344
00> -3025
01> -26303
00> -3005
01> -26264
00> -3014
01> -26282
00> -3049
01> -26328
00> -3049
01> -26325
00> -3035
01> -26288
00> -3019
01> -26254
00> -3025
01> -26262
00> -3049
01> -26304
00> -3043
01> -26299
00> -3020
01> -26259
00> -3004
01> -26227
00> -3021
01> -26252
00> -3054
01> -26299
00> -3049
01> -26289
00> -3024
01> -26252
00> -3001
01> -26219
00> -3006
01> -26226
00> -3036
01> -26266
00> -3038
01> -26252
00> -3019
01> -26209
00> -2998
01> -26176
00> -3009
01> -26194
00> -3042
01> -26247
00> -3041
01> -26246
00> -3015
01> -26201
00> -2990
01> -26154
00> -3000
01> -26162
00> -3036
01> -26207
00> -3037
01> -26199
00> -3006
01> -26151
00> -2984
01> -26116
00> -2996
01> -26133
00> -3031
01> -26177
00> -3030
01> -26171
00> -3009
01> -26128
00> -2991
01> -26099
00> -3001
01> -26117
00> -3031
01> -26161
00> -3034
01> -26149
00> -3013
01> -26109
00> -2994
01> -26077
00> -3004
01> -26093
00> -3036
01> -26136
00> -3040
01> -26123
00> -3013
01> -26082
00> -2989
01> -26043
00> -2996
01> -26051
00> -3022
01> -26091
00> -3022
01> -26090
00> -3004
01> -26053
00> -2988
01> -26015
00> -2997
01> -26032
00> -3027
01> -26079
00> -3027
01> -26062
00> -3004
01> -26011
00> -2977
01> -25971
00> -2985
01> -25987
00> -3023
01> -26039
00> -3027
01> -26028
00> -3007
01> -25991
00> -2982
01> -25957
00> -2989
01> -25969
00> -3016
01> -26012
00> -3016
01> -26004
00> -2999
01> -25968
00> -2984
01> -25937
00> -2998
01> -25949
00> -3034
01> -26001
00> -3037
01> -26009
00> -3010
01> -25969
00> -2987
01> -25929
00> -2987
01> -25935
00> -3014
01> -25981
00> -3022
01> -25972
00> -2995
01> -25922
00> -2971
01> -25886
00> -2977
01> -25896
00> -3012
01> -25944
00> -3016
01> -25939
00> -2999
01> -25902
00> -2979
01> -25866
00> -2981
01> -25874
00> -3011
01> -25921
00> -3015
01> -25919
00> -2990
01> -25881
00> -2964
01> -25845
00> -2971
01> -25848
00> -3003
01> -25891
00> -3007
01> -25894
00> -2987
01> -25862
00> -2972
01> -25831
00> -2982
01> -25846
00> -3014
01> -25889
00> -3017
01> -25886
00> -2993
01> -25842
00> -2967
01> -25803
00> -2971
01> -25811
00> -3002
01> -25861
00> -3010
01> -25867
00> -2990
01> -25827
00> -2968
01> -25795
00> -2971
01> -25804
00> -3004
01> -25851
00> -3014
01> -25850
00> -2992
01> -25806
00> -2967
01> -25766
00> -2974
01> -25772
00> -3002
01> -25816
00> -3006
01> -25817
00> -2981
01> -25776
00> -2955
01> -25736
00> -2961
01> -25750
00> -2998
01> -25808
00> -3004
01> -25811
00> -2980
01> -25774
00> -2957
01> -25735
00> -2956
01> -25729
00> -2989
01> -25766
00> -2996
01> -25764
00> -2975
01> -25726
00> -2954
01> -25695
00> -2959
01> -25699
00> -2989
01> -25748
00> -2989
01> -25754
00> -2969
01> -25712
00> -2944
01> -25671
00> -2949
01> -25674
00> -2984
01> -25722
00> -2989
01> -25723
00> -2970
01> -25689
00> -2951
01> -25651
00> -2954
01> -25656
00> -2986
01> -25707
00> -2995
01> -25711
00> -2974
01> -25674
00> -2949
01> -25641
00> -2947
01> -25647
00> -2982
01> -25697
00> -2988
01> -25704
00> -2968
01> -25665
00> -2942
01> -25627
00> -2944
01> -25626
00> -2975
01> -25671
00> -2981
01> -25677
00> -2962
01> -25645
00> -2942
01> -25608
00> -2944
01> -25607
00> -2977
01> -25655
00> -2979
01> -25656
00> -2956
01> -25619
00> -2934
01> -25587
00> -2946
01> -25596
00> -2977
01> -25643
00> -2986
01> -25647
00> -2965
01> -25606
00> -2945
01> -25563
00> -2946
01> -25561
00> -2979
01> -25607
00> -2986
01> -25611
00> -2968
01> -25577
00> -2948
01> -25543
00> -2945
01> -25535
00> -2973
01> -25572
00> -2967
01> -25571
00> -2942
01> -25518
00> -2907
01> -25457
00> -2899
01> -25430
00> -2911
01> -25436
