# SEGGER J-Link RTT Viewer V6.62 Terminal Log File
# Compiled: 16:34:01 on Jan 24 2020
# Logging started @ 20 Jun 2024 15:47:29

00> -32610
01> -44404
00> -32486
01> -44359
00> -32321
01> -44311
00> -32345
01> -44324
00> -32517
01> -44375
00> -32604
01> -44395
00> -32479
01> -44351
00> -32321
01> -44309
00> -32357
01> -44336
00> -32530
01> -44393
00> -32613
01> -44418
00> -32491
01> -44375
00> -32335
01> -44327
00> -32362
01> -44335
00> -32526
01> -44386
00> -32614
01> -44414
00> -32496
01> -44370
00> -32341
01> -44323
00> -32369
01> -44336
00> -32547
01> -44398
00> -32644
01> -44431
00> -32533
01> -44393
00> -32370
01> -44346
00> -32394
01> -44354
00> -32556
01> -44401
00> -32637
01> -44419
00> -32522
01> -44379
00> -32355
01> -44321
00> -32374
01> -44327
00> -32549
01> -44385
00> -32644
01> -44417
00> -32527
01> -44386
00> -32356
01> -44338
00> -32371
01> -44349
00> -32540
01> -44401
00> -32641
01> -44429
00> -32527
01> -44388
00> -32363
01> -44338
00> -32379
01> -44351
00> -32542
01> -44402
00> -32641
01> -44438
00> -32534
01> -44402
00> -32366
01> -44346
00> -32384
01> -44351
00> -32555
01> -44407
00> -32649
01> -44432
00> -32534
01> -44391
00> -32371
01> -44339
00> -32387
01> -44349
00> -32547
01> -44399
00> -32638
01> -44423
00> -32521
01> -44384
00> -32361
01> -44340
00> -32392
01> -44361
00> -32572
01> -44423
00> -32677
01> -44449
00> -32565
01> -44407
00> -32392
01> -44354
00> -32401
01> -44362
00> -32569
01> -44412
00> -32663
01> -44437
00> -32557
01> -44404
00> -32384
01> -44350
00> -32389
01> -44343
00> -32551
01> -44387
00> -32665
01> -44424
00> -32569
01> -44399
00> -32402
01> -44354
00> -32410
01> -44370
00> -32568
01> -44429
00> -32667
01> -44466
00> -32559
01> -44442
00> -32385
01> -44395
00> -32390
01> -44409
00> -32563
01> -44476
00> -32677
01> -44524
01> 
00> -32573
01> -44499
00> -32405
01> -44449
00> -32412
01> -44454
00> -32584
01> -44514
00> -32696
01> -44557
00> -32597
01> -44529
00> -32422
01> -44481
00> -32414
01> -44483
00> -32569
01> -44530
00> -32671
01> -44558
00> -32569
01> -44519
00> -32387
01> -44459
00> -32379
01> -44462
00> -32550
01> -44527
00> -32676
01> -44571
00> -32586
01> -44539
00> -32421
01> -44484
00> -32414
01> -44483
00> -32569
01> -44527
00> -32679
01> -44553
00> -32587
01> -44525
00> -32415
01> -44481
00> -32404
01> -44486
00> -32566
01> -44534
00> -32689
01> -44566
00> -32597
01> -44537
00> -32425
01> -44491
00> -32415
01> -44496
00> -32572
01> -44543
00> -32683
01> -44567
00> -32581
01> -44536
00> -32409
01> -44490
00> -32404
01> -44493
00> -32567
01> -44549
00> -32685
01> -44589
00> -32603
01> -44559
00> -32436
01> -44504
00> -32421
01> -44497
00> -32573
01> -44544
00> -32691
01> -44584
00> -32604
01> -44556
00> -32437
01> -44496
00> -32426
01> -44491
00> -32582
01> -44542
00> -32703
01> -44577
00> -32611
01> -44539
00> -32434
01> -44477
00> -32413
01> -44476
00> -32576
01> -44534
00> -32699
01> -44576
00> -32610
01> -44549
00> -32440
01> -44493
00> -32427
01> -44492
00> -32587
01> -44545
00> -32710
01> -44581
00> -32630
01> -44546
00> -32456
01> -44487
00> -32428
01> -44477
00> -32583
01> -44529
00> -32714
01> -44571
00> -32638
01> -44544
00> -32467
01> -44492
00> -32444
01> -44487
00> -32596
01> -44535
00> -32721
01> -44574
00> -32637
01> -44543
00> -32462
01> -44487
00> -32441
01> -44479
00> -32593
01> -44521
00> -32721
01> -44554
00> -32646
01> -44534
00> -32469
01> -44489
00> -32435
01> -44486
00> -32579
01> -44537
00> -32718
01> -44584
00> -32642
01> -44559
00> -32464
01> -44504
00> -32447
01> -44503
00> -32622
01> -44564
00> -32771
01> -44619
00> -32700
01> -44611
00> -32527
01> -44571
00> -32501
01> -44579
00> -32659
01> -44638
00> -32798
01> -44681
00> -32725
01> -44660
00> -32567
01> -44614
00> -32547
01> -44609
00> -32703
01> -44657
00> -32844
01> -44693
00> -32782
01> -44671
00> -32610
01> -44623
00> -32566
01> -44622
00> -32707
01> -44670
00> -32845
01> -44709
00> -32782
01> -44688
00> -32610
01> -44637
00> -32567
01> -44623
00> -32708
01> -44667
00> -32850
01> -44714
00> -32784
01> -44691
00> -32611
01> -44636
00> -32577
01> -44625
00> -32731
01> -44668
00> -32871
01> -44714
00> -32794
01> -44687
00> -32606
01> -44629
00> -32560
01> -44620
00> -32709
01> -44671
00> -32850
01> -44711
00> -32781
01> -44677
00> -32605
01> -44619
00> -32567
01> -44619
00> -32717
01> -44672
00> -32854
01> -44714
00> -32785
01> -44687
00> -32609
01> -44631
00> -32559
01> -44613
00> -32706
01> -44657
00> -32854
01> -44697
00> -32801
01> -44677
00> -32632
01> -44621
00> -32589
01> -44612
00> -32730
01> -44661
00> -32868
01> -44702
00> -32807
01> -44684
00> -32637
01> -44634
00> -32577
01> -44619
00> -32698
00> -32503
01> -44497
00> -32359
01> -44459
00> -32261
01> -44433
00> -32356
01> -44467
00> -32509
01> -44515
00> -32501
01> -44509
00> -32341
01> -44459
00> -32242
01> -44431
00> -32339
01> -44467
00> -32491
01> -44516
00> -32487
01> -44515
00> -32341
01> -44473
00> -32245
01> -44444
00> -32342
01> -44473
00> -32496
01> -44523
00> -32490
01> -44518
00> -32343
01> -44470
00> -32250
01> -44444
00> -32342
01> -44482
00> -32489
01> -44533
00> -32486
01> -44530
00> -32344
01> -44479
00> -32245
01> -44453
00> -32340
01> -44489
00> -32492
01> -44540
00> -32493
01> -44533
00> -32351
01> -44491
00> -32252
01> -44457
00> -32341
01> -44481
00> -32486
01> -44531
00> -32489
01> -44536
00> -32345
01> -44494
00> -32239
01> -44465
00> -32325
01> -44494
00> -32481
01> -44542
00> -32484
01> -44540
00> -32334
01> -44499
00> -32234
01> -44471
00> -32321
01> -44501
00> -32469
01> -44551
00> -32474
01> -44551
00> -32329
01> -44505
00> -32229
01> -44473
00> -32325
01> -44503
00> -32480
01> -44551
00> -32481
01> -44556
00> -32333
01> -44504
00> -32234
01> -44472
00> -32330
01> -44513
00> -32491
01> -44575
00> -32489
01> -44577
00> -32337
01> -44541
00> -32224
01> -44517
00> -32294
01> -44545
00> -32430
01> -44604
00> -32426
01> -44612
00> -32273
01> -44569
00> -32164
01> -44544
00> -32242
01> -44584
00> -32382
01> -44636
00> -32382
01> -44637
00> -32227
01> -44594
00> -32112
01> -44561
00> -32200
01> -44593
00> -32357
01> -44648
00> -32367
01> -44656
00> -32215
01> -44602
00> -32096
01> -44560
00> -32169
01> -44582
00> -32320
01> -44630
00> -32323
01> -44626
00> -32186
01> -44578
00> -32091
01> -44542
00> -32184
01> -44567
00> -32340
01> -44623
00> -32349
01> -44628
00> -32206
01> -44586
00> -32089
01> -44546
00> -32157
01> -44561
00> -32310
01> -44605
00> -32322
01> -44606
00> -32172
01> -44555
00> -32059
01> -44514
00> -32145
01> -44543
00> -32276
01> -44569
00> -32244
01> -44527
00> -32107
01> -44468
00> -32007
01> -44412
00> -32057
01> -44381
00> -32171
01> -44355
00> -32157
01> -44279
00> -32003
01> -44159
00> -31877
01> -44043
00> -31941
01> -43981
00> -32070
01> -43942
00> -32063
01> -43870
00> -31915
01> -43770
00> -31784
01> -43666
00> -31853
01> -43634
00> -31992
01> -43626
00> -31992
01> -43574
00> -31849
01> -43496
00> -31734
01> -43422
00> -31801
01> -43404
00> -31951
01> -43424
00> -31966
01> -43402
00> -31818
01> -43326
00> -31700
01> -43263
00> -31774
01> -43274
00> -31934
01> -43315
00> -31950
01> -43299
00> -31802
01> -43227
00> -31676
01> -43172
00> -31745
01> -43183
00> -31903
01> -43222
00> -31922
01> -43220
00> -31784
01> -43161
00> -31667
01> -43111
00> -31745
01> -43127
00> -31907
01> -43171
00> -31939
01> -43167
00> -31799
01> -43114
00> -31673
01> -43066
00> -31748
01> -43078
00> -31903
01> -43117
00> -31931
01> -43117
00> -31791
01> -43066
00> -31676
01> -43024
00> -31750
01> -43040
00> -31901
01> -43079
00> -31919
01> -43074
00> -31787
01> -43029
00> -31666
01> -42987
00> -31722
01> -43002
00> -31865
01> -43039
00> -31899
01> -43037
00> -31771
01> -42988
00> -31646
01> -42945
00> -31698
01> -42957
00> -31846
01> -42999
00> -31861
01> -43001
00> -31719
01> -42951
00> -31607
01> -42907
00> -31681
01> -42927
00> -31846
01> -42974
00> -31877
01> -42977
00> -31750
01> -42929
00> -31632
01> -42881
00> -31704
01> -42898
00> -31846
01> -42938
00> -31857
01> -42932
00> -31713
01> -42882
00> -31597
01> -42849
00> -31665
01> -42869
00> -31809
01> -42909
00> -31832
01> -42909
00> -31695
01> -42859
00> -31574
01> -42822
00> -31639
01> -42846
00> -31796
01> -42894
00> -31826
01> -42899
00> -31691
01> -42851
00> -31554
01> -42801
00> -31614
01> -42816
00> -31764
01> -42861
00> -31798
01> -42867
00> -31674
01> -42824
00> -31552
01> -42785
00> -31608
01> -42808
00> -31775
01> -42857
00> -31819
01> -42874
00> -31687
01> -42827
00> -31561
01> -42782
00> -31631
01> -42797
00> -31792
01> -42840
00> -31826
01> -42852
00> -31688
01> -42806
00> -31556
01> -42760
00> -31614
01> -42779
00> -31771
01> -42827
00> -31811
01> -42843
00> -31683
01> -42807
00> -31560
01> -42761
00> -31628
01> -42778
00> -31781
01> -42829
00> -31820
01> -42840
00> -31689
01> -42791
00> -31560
01> -42745
00> -31621
01> -42765
00> -31772
01> -42815
00> -31807
01> -42821
00> -31680
01> -42776
00> -31549
01> -42731
00> -31606
01> -42747
00> -31753
01> -42797
00> -31781
01> -42799
00> -31642
01> -42749
00> -31512
01> -42708
00> -31577
01> -42734
00> -31742
01> -42784
00> -31782
01> -42792
00> -31647
01> -42749
00> -31526
01> -42711
00> -31592
01> -42734
00> -31754
01> -42783
00> -31791
01> -42797
00> -31644
01> -42756
00> -31507
01> -42712
00> -31563
01> -42730
00> -31720
01> -42779
00> -31761
01> -42805
00> -31632
01> -42772
00> -31509
01> -42735
00> -31567
01> -42752
00> -31721
01> -42796
00> -31766
01> -42811
00> -31640
01> -42771
00> -31512
01> -42729
00> -31573
01> -42748
00> -31729
01> -42796
00> -31759
01> -42804
00> -31622
01> -42768
00> -31499
01> -42729
00> -31559
01> -42747
00> -31720
01> -42801
00> -31775
01> -42821
00> -31652
01> -42782
00> -31526
01> -42737
00> -31581
01> -42756
00> -31736
01> -42807
00> -31789
01> -42820
00> -31667
01> -42780
00> -31536
01> -42744
00> -31582
01> -42759
00> -31733
01> -42807
00> -31774
01> -42822
00> -31646
01> -42784
00> -31516
01> -42742
00> -31566
01> -42751
00> -31718
01> -42796
00> -31775
01> -42812
00> -31650
01> -42774
00> -31512
01> -42732
00> -31561
01> -42747
00> -31712
01> -42787
00> -31763
01> -42802
00> -31647
01> -42762
00> -31519
01> -42725
00> -31580
01> -42750
00> -31736
01> -42797
00> -31782
01> -42816
00> -31663
01> -42791
00> -31535
01> -42754
00> -31583
01> -42773
00> -31736
01> -42824
00> -31789
01> -42847
00> -31652
01> -42812
00> -31502
01> -42767
00> -31561
01> -42790
00> -31737
01> -42844
00> -31795
01> -42857
00> -31668
01> -42814
00> -31539
01> -42784
00> -31589
01> -42801
00> -31742
01> -42846
00> -31794
01> -42857
00> -31672
01> -42817
00> -31534
01> -42769
00> -31591
01> -42801
00> -31743
01> -42857
00> -31791
01> -42872
00> -31659
01> -42834
00> -31521
01> -42797
00> -31576
01> -42829
00> -31731
01> -42887
00> -31782
01> -42912
00> -31664
01> -42882
00> -31534
01> -42844
00> -31592
01> -42866
00> -31744
01> -42925
00> -31794
01> -42947
00> -31673
01> -42911
00> -31537
01> -42867
00> -31586
01> -42886
00> -31743
01> -42935
00> -31803
01> -42953
00> -31686
01> -42909
00> -31541
01> -42866
00> -31586
01> -42874
00> -31747
01> -42921
00> -31806
01> -42940
00> -31678
01> -42897
00> -31534
01> -42856
00> -31576
01> -42879
00> -31734

00> -31803
01> -42981
00> -31697
01> -42960
00> -31570
01> -42926
00> -31616
01> -42949
00> -31783
01> -43009
00> -31856
01> -43041
00> -31744
01> -43021
00> -31598
01> -42984
00> -31633
01> -43007
00> -31790
01> -43062
00> -31863
01> -43091
00> -31741
01> -43056
00> -31582
01> -42999
00> -31614
01> -43017
00> -31783
01> -43074
00> -31856
01> -43099
00> -31737
01> -43056
00> -31588
01> -43001
00> -31610
01> -43014
00> -31757
01> -43056
00> -31817
01> -43073
00> -31707
01> -43037
00> -31565
01> -42991
00> -31609
01> -43012
00> -31783
01> -43080
00> -31859
01> -43119
00> -31747
01> -43093
00> -31601
01> -43060
00> -31640
01> -43084
00> -31796
01> -43142
00> -31862
01> -43172
00> -31754
01> -43153
00> -31623
01> -43127
00> -31661
01> -43152
00> -31821
01> -43211
00> -31892
01> -43237
00> -31779
01> -43202
00> -31636
01> -43156
00> -31666
01> -43164
00> -31817
01> -43212
00> -31894
01> -43240
00> -31781
01> -43202
00> -31631
01> -43144
00> -31655
01> -43148
00> -31804
01> -43192
00> -31871
01> -43211
00> -31758
01> -43167
00> -31616
01> -43116
00> -31639
01> -43121
00> -31786
01> -43171
00> -31857
01> -43196
00> -31752
01> -43161
00> -31601
01> -43114
00> -31631
01> -43127
00> -31793
01> -43184
00> -31868
01> -43216
00> -31757
01> -43181
00> -31615
01> -43142
00> -31659
01> -43165
00> -31824
01> -43218
00> -31909
01> -43246
00> -31811
01> -43216
00> -31669
01> -43183
00> -31701
01> -43199
00> -31854
01> -43252
00> -31917
01> -43275
00> -31802
01> -43234
00> -31666
01> -43187
00> -31708
01> -43201
00> -31862
01> -43249
00> -31932
01> -43271
00> -31821
01> -43231
00> -31670
01> -43182
00> -31706
01> -43192
00> -31864
01> -43245
00> -31941
01> -43272
00> -31838
01> -43242
00> -31692
01> -43197
00> -31721
01> -43204
00> -31860
01> -43251
00> -31925
01> -43270
00> -31813
01> -43231
00> -31662
01> -43177
00> -31701
01> -43187
00> -31864
01> -43232
00> -31939
01> -43252
00> -31829
01> -43217
00> -31689
01> -43168
00> -31712
01> -43178
00> -31867
01> -43232
00> -31950
01> -43262
00> -31845
01> -43232
00> -31701
01> -43190
00> -31722
01> -43204
00> -31863
01> -43251
00> -31941
01> -43272
00> -31832
01> -43244
00> -31679
01> -43202
00> -31701
01> -43216
00> -31851
01> -43267
00> -31931
01> -43298
00> -31822
01> -43266
00> -31668
01> -43214
00> -31686
01> -43217
00> -31842
01> -43264
00> -31931
01> -43290
00> -31826
01> -43251
00> -31668
01> -43197
00> -31681
01> -43200
00> -31833
01> -43244
00> -31922
01> -43269
00> -31827
01> -43234
00> -31690
01> -43187
00> -31711
01> -43194
00> -31864
01> -43243
00> -31954
01> -43269
00> -31846
01> -43242
00> -31691
01> -43200
00> -31708
01> -43216
00> -31862
01> -43272
00> -31953
01> -43306
00> -31862
01> -43279
00> -31720
01> -43239
00> -31739
01> -43252
00> -31888
01> -43303
00> -31970
01> -43334
00> -31882
01> -43304
00> -31747
01> -43256
00> -31759
01> -43250
00> -31900
01> -43294
00> -31974
01> -43314
00> -31866
01> -43274
00> -31731
01> -43218
00> -31747
01> -43212
00> -31882
01> -43244
00> -31952
01> -43258
00> -31864
01> -43221
00> -31731
01> -43166
00> -31740
01> -43163
00> -31869
01> -43205
00> -31949
01> -43236
00> -31866
01> -43213
00> -31746
01> -43174
00> -31756
01> -43186
00> -31869
01> -43224
00> -31926
01> -43246
00> -31842
01> -43224
00> -31728
01> -43195
00> -31748
01> -43210
00> -31869
01> -43260
00> -31932
01> -43283
00> -31857
01> -43252
00> -31752
01> -43214
00> -31767
01> -43219
00> -31869
01> -43256
00> -31923
01> -43270
00> -31858
01> -43235
00> -31755
01> -43185
00> -31766
01> -43187
00> -31872
01> -43218
00> -31929
01> -43231
00> -31848
01> -43194
00> -31735
01> -43154
00> -31742
01> -43157
00> -31844
01> -43190
00> -31894
01> -43206
00> -31821
01> -43179
00> -31722
01> -43142
00> -31735
01> -43147
00> -31833
01> -43185
00> -31881
01> -43205
00> -31827
01> -43186
00> -31749
01> -43158
00> -31767
01> -43170
00> -31843
01> -43205
00> -31887
01> -43222
00> -31838
01> -43206
00> -31764
01> -43177
00> -31778
01> -43176
00> -31857
01> -43207
00> -31893
01> -43226
00> -31842
01> -43211
00> -31774
01> -43183
00> -31786
01> -43182
00> -31857
01> -43209
00> -31893
01> -43225
00> -31849
01> -43212
00> -31781
01> -43182
00> -31785
01> -43180
00> -31849
01> -43202
00> -31881
01> -43220
00> -31842
01> -43209
00> -31785
01> -43185
00> -31800
01> -43188
00> -31868
01> -43219
00> -31899
01> -43237
00> -31859
01> -43227
00> -31800
01> -43209
00> -31804
01> -43216
00> -31852
01> -43243
00> -31871
01> -43255
00> -31831
01> -43234
00> -31785
01> -43202
00> -31797
01> -43205
00> -31847
01> -43231
00> -31869
01> -43247
00> -31828
01> -43224
00> -31776
01> -43200
00> -31791
01> -43201
00> -31849
01> -43222
00> -31873
01> -43227
00> -31839
01> -43204
00> -31782
01> -43170
00> -31783
01> -43168
00> -31834
01> -43196
00> -31862
01> -43212
00> -31826
01> -43196
00> -31776
01> -43171
00> -31773
01> -43172
00> -31825
01> -43194
00> -31854
01> -43207
00> -31823
01> -43190
00> -31772
01> -43164
00> -31784
01> -43168
00> -31843
01> -43191
00> -31869
01> -43202
00> -31828
01> -43184
00> -31777
01> -43161
00> -31785
01> -43167
00> -31832
01> -43194
00> -31851
01> -43201
00> -31810
01> -43186
00> -31765
01> -43165
00> -31774
01> -43166
00> -31834
01> -43195
00> -31867
01> -43207
00> -31838
01> -43196
00> -31787
01> -43177
00> -31790
01> -43178
00> -31842
01> -43199
00> -31856
01> -43206
00> -31811
01> -43184
00> -31766
01> -43157
00> -31780
01> -43159
00> -31849
01> -43187
00> -31890
01> -43209
00> -31860
01> -43189
00> -31798
01> -43162
00> -31800
01> -43164
00> -31862
01> -43187
00> -31904
01> -43204
00> -31863
01> -43187
00> -31791
01> -43154
00> -31792
01> -43154
00> -31852
01> -43177
00> -31890
01> -43193
00> -31854
01> -43178
00> -31804
01> -43158
00> -31813
01> -43163
00> -31875
01> -43191
00> -31904
01> -43206
00> -31863
01> -43194
00> -31799
01> -43171
00> -31804
01> -43176
00> -31861
01> -43214
00> -31892
01> -43239
00> -31857
01> -43223
00> -31810
01> -43206
00> -31819
01> -43202
00> -31877
01> -43227
00> -31917
01> -43249
00> -31881
01> -43236
00> -31821
01> -43208
00> -31824
01> -43219
00> -31887
01> -43250
00> -31927
01> -43266
00> -31889
01> -43249
00> -31828
01> -43226
00> -31830
01> -43229
00> -31893
01> -43252
00> -31926
01> -43267
00> -31872
01> -43251
00> -31808
01> -43230
00> -31813
01> -43229
00> -31879
01> -43252
00> -31924
01> -43271
00> -31889
01> -43262
00> -31824
01> -43236
00> -31823
01> -43235
00> -31884
01> -43261
00> -31932
01> -43289
00> -31897
01> -43281
00> -31827
01> -43258
00> -31829
01> -43264
00> -31900
01> -43299
00> -31936
01> -43319
00> -31889
01> -43302
00> -31813
01> -43267
00> -31817
01> -43269
00> -31900
01> -43301
00> -31958
01> -43322
00> -31922
01> -43310
00> -31842
01> -43279
00> -31836
01> -43269
00> -31901
01> -43305
00> -31956
01> -43331
00> -31923
01> -43317
00> -31842
01> -43284
00> -31835
01> -43281
00> -31913
01> -43308
00> -31965
01> -43330
00> -31925
01> -43317
00> -31845
01> -43287
00> -31844
01> -43289
00> -31912
01> -43321
00> -31973
01> -43347
00> -31945
01> -43337
00> -31871
01> -43314
00> -31857
01> -43314
00> -31925
01> -43346
00> -31981
01> -43371
00> -31943
01> -43357
00> -31872
01> -43325
00> -31869
01> -43326
00> -31934
01> -43352
00> -31986
01> -43369
00> -31942
01> -43349
00> -31861
01> -43316
00> -31864
01> -43315
00> -31949
01> -43344
00> -32007
01> -43377
00> -31970
01> -43366
00> -31881
01> -43329
00> -31874
01> -43325
00> -31952
01> -43352
00> -31999
01> -43371
00> -31948
01> -43352
00> -31857
01> -43317
00> -31844
01> -43314
00> -31917
01> -43339
00> -31974
01> -43356
00> -31926
01> -43332
00> -31833
01> -43293
00> -31809
01> -43277
00> -31878
01> -43303
00> -31934
01> -43324
00> -31889
01> -43306
00> -31804
01> -43269
00> -31797
01> -43264
00> -31869
01> -43296
00> -31921
01> -43317
00> -31877
01> -43306
00> -31794
01> -43276
00> -31795
01> -43277
00> -31892
01> -43326
00> -31959
01> -43362
00> -31915
01> -43346
00> -31832
01> -43318
00> -31829
01> -43328
00> -31913
01> -43371
00> -31981
01> -43406
00> -31939
01> -43400
00> -31847
01> -43367
00> -31840
01> -43362
00> -31919
01> -43399
00> -31974
01> -43424
00> -31934
01> -43411
00> -31853
01> -43372
00> -31843
01> -43364
00> -31923
01> -43394
00> -31977
01> -43418
00> -31938
01> -43400
00> -31854
01> -43355
00> -31852
01> -43351
00> -31936
01> -43382
00> -31989
01> -43402
00> -31941
01> -43383
00> -31852
01> -43349
00> -31845
01> -43339
00> -31926
01> -43371
00> -31988
01> -43399
00> -31947
01> -43382
00> -31860
01> -43352
00> -31844
01> -43349
00> -31921
01> -43388
00> -31996
01> -43427
00> -31965
01> -43421
00> -31882
01> -43389
00> -31886
01> -43402
00> -31972
01> -43444
00> -32039
01> -43472
00> -31999
01> -43461
00> -31906
01> -43425
00> -31886
01> -43413
00> -31959
01> -43434
00> -32029
01> -43461
00> -32002
01> -43450
00> -31915
01> -43412
00> -31896
01> -43400
00> -31959
01> -43421
00> -32007
01> -43441
00> -31963
01> -43425
00> -31881
01> -43396
00> -31873
01> -43396
00> -31960
01> -43426
00> -32035
01> -43450
00> -31996
01> -43438
00> -31906
01> -43412
00> -31885
01> -43411
00> -31949
01> -43440
00> -32024
01> -43484
00> -31996
01> -43482
00> -31915
01> -43452
00> -31898
01> -43451
00> -31977
01> -43485
00> -32047
01> -43516
00> -32001
01> -43506
00> -31907
01> -43468
00> -31897
01> -43459
00> -31974
01> -43489
00> -32034
01> -43507
00> -32003
01> -43486
00> -31926
01> -43452
00> -31914
01> -43446
00> -31984
01> -43471
00> -32047
01> -43494
00> -32003
01> -43476
00> -31913
01> -43441
00> -31897
01> -43434
00> -31972
01> -43459
00> -32046
01> -43491
00> -32014
01> -43486
00> -31926
01> -43454
00> -31917
01> -43454
00> -31994
01> -43485
00> -32059
01> -43507
00> -32030
01> -43499
00> -31947
01> -43476
00> -31923
01> -43470
00> -31991
01> -43499
00> -32060
01> -43527
00> -32033
01> -43521
00> -31950
01> -43489
00> -31926
01> -43476
00> -31986
01> -43499
00> -32049
01> -43522
00> -32022
01> -43509
00> -31947
01> -43470
00> -31925
01> -43459
00> -31999
01> -43490
00> -32063
01> -43514
00> -32024
01> -43492
00> -31934
01> -43452
00> -31916
01> -43450
00> -31984
01> -43480
00> -32044
01> -43511
00> -32021
01> -43503
00> -31942
01> -43476
00> -31919
01> -43472
00> -31986
01> -43499
00> -32057
01> -43536
00> -32024
01> -43528
00> -31932
01> -43492
00> -31906
01> -43481
00> -31984
01> -43514
00> -32065
01> -43547
00> -32032
01> -43542
00> -31939
01> -43504
00> -31914
01> -43487
00> -31989
01> -43511
00> -32059
01> -43539
00> -32028
01> -43527
00> -31936
01> -43493
00> -31916
01> -43479
00> -31993
01> -43508
00> -32071
01> -43533
00> -32043
01> -43521
00> -31948
01> -43489
00> -31918
01> -43481
00> -31989
01> -43516
00> -32073
01> -43553
00> -32044
01> -43546
00> -31949
01> -43516
00> -31922
01> -43511
00> -31995
01> -43537
00> -32070
01> -43567
00> -32047
01> -43566
00> -31956
01> -43534
00> -31929
01> -43526
00> -32007
01> -43554
00> -32089
01> -43587
00> -32056
01> -43567
00> -31969
01> -43530
00> -31942
01> -43517
00> -32018
01> -43544
00> -32087
01> -43569
00> -32057
01> -43558
00> -31964
01> -43519
00> -31932
01> -43507
00> -32011

00> -32091
01> -43562
00> -32047
01> -43545
00> -31939
01> -43510
00> -31916
01> -43502
00> -32007
01> -43541
00> -32096
01> -43580
00> -32068
01> -43576
00> -31980
01> -43546
00> -31956
01> -43539
00> -32043
01> -43577
00> -32122
01> -43615
00> -32086
01> -43606
00> -31987
01> -43566
00> -31955
01> -43552
00> -32031
01> -43579
00> -32111
01> -43610
00> -32080
01> -43597
00> -31980
01> -43556
00> -31944
01> -43537
00> -32020
01> -43562
00> -32099
01> -43592
00> -32064
01> -43580
00> -31970
01> -43545
00> -31939
01> -43530
00> -32019
01> -43556
00> -32104
01> -43590
00> -32077
01> -43587
00> -31981
01> -43562
00> -31944
01> -43559
00> -32022
01> -43592
00> -32116
01> -43626
00> -32089
01> -43620
00> -31997
01> -43587
00> -31959
01> -43574
00> -32024
01> -43602
00> -32113
01> -43637
00> -32086
01> -43629
00> -31977
01> -43579
00> -31947
01> -43567
00> -32031
01> -43592
00> -32109
01> -43611
00> -32076
01> -43590
00> -31981
01> -43545
00> -31943
01> -43519
00> -32007
01> -43529
00> -32082
01> -43546
00> -32052
01> -43520
00> -31944
01> -43466
00> -31899
01> -43442
00> -31973
01> -43466
00> -32060
01> -43498
00> -32029
01> -43479
00> -31924
01> -43439
00> -31881
01> -43422
00> -31958
01> -43453
00> -32047
01> -43482
00> -32007
01> -43469
00> -31892
01> -43426
00> -31846
01> -43409
00> -31921
01> -43437
00> -32018
01> -43469
00> -31994
01> -43458
00> -31883
01> -43412
00> -31842
01> -43396
00> -31922
01> -43419
00> -32015
01> -43447
00> -31991
01> -43433
00> -31879
01> -43393
00> -31826
01> -43374
00> -31902
01> -43397
00> -31992
01> -43421
00> -31965
01> -43413
00> -31860
01> -43374
00> -31812
01> -43357
00> -31889
01> -43384
00> -31984
01> -43412
00> -31963
01> -43410
00> -31851
01> -43377
00> -31807
01> -43364
00> -31897
01> -43396
00> -31999
01> -43432
00> -31974
01> -43424
00> -31872
01> -43396
00> -31832
01> -43382
00> -31912
01> -43408
00> -32004
01> -43434
00> -31977
01> -43422
00> -31874
01> -43379
00> -31826
01> -43361
00> -31896
01> -43381
00> -31976
01> -43409
00> -31946
01> -43398
00> -31841
01> -43356
00> -31796
01> -43338
00> -31887
01> -43371
00> -31996
01> -43417
00> -31976
01> -43415
00> -31869
01> -43382
00> -31830
01> -43372
00> -31916
01> -43405
00> -32018
01> -43450
00> -32002
01> -43453
00> -31896
01> -43424
00> -31858
01> -43419
00> -31939
01> -43454
00> -32037
01> -43496
00> -32010
01> -43486
00> -31901
01> -43447
00> -31848
01> -43429
00> -31924
01> -43456
00> -32028
01> -43495
00> -32007
01> -43484
00> -31904
01> -43451
00> -31858
01> -43432
00> -31926
01> -43446
00> -32021
01> -43469
00> -32006
01> -43460
00> -31896
01> -43424
00> -31837
01> -43401
00> -31904
01> -43425
00> -31992
01> -43453
00> -31989
01> -43445
00> -31891
01> -43409
00> -31847
01> -43398
00> -31935
01> -43431
00> -32042
01> -43473
00> -32016
01> -43471
00> -31897
01> -43432
00> -31849
01> -43410
00> -31942
01> -43442
00> -32055
01> -43485
00> -32026
01> -43486
00> -31895
01> -43449
00> -31829
01> -43426
00> -31910
01> -43454
00> -32020
01> -43497
00> -31997
01> -43492
00> -31881
01> -43449
00> -31835
01> -43424
00> -31927
01> -43442
00> -32046
01> -43476
00> -32034
01> -43465
00> -31916
01> -43423
00> -31848
01> -43394
00> -31923
01> -43412
00> -32026
01> -43443
00> -32012
01> -43432
00> -31905
01> -43392
00> -31846
01> -43372
00> -31915
01> -43395
00> -32007
01> -43434
00> -31983
01> -43430
00> -31882
01> -43403
00> -31832
01> -43394
00> -31916
01> -43427
00> -32022
01> -43467
00> -32011
01> -43462
00> -31902
01> -43427
00> -31844
01> -43411
00> -31921
01> -43439
00> -32028
01> -43476
00> -32019
01> -43467
00> -31910
01> -43427
00> -31848
01> -43402
00> -31923
01> -43425
00> -32031
01> -43461
00> -32012
01> -43447
00> -31892
01> -43389
00> -31834
01> -43371
00> -31909
01> -43389
00> -32009
01> -43417
00> -31997
01> -43405
00> -31884
01> -43361
00> -31806
01> -43327
00> -31888
01> -43347
00> -32011
01> -43383
00> -31997
01> -43374
00> -31862
01> -43324
00> -31781
01> -43296
00> -31858
01> -43329
00> -31983
01> -43379
00> -31987
01> -43389
00> -31879
01> -43361
00> -31812
01> -43346
00> -31890
01> -43376
00> -32012
01> -43423
00> -32013
01> -43434
00> -31902
01> -43402
00> -31839
01> -43388
00> -31921
01> -43419
00> -32042
01> -43464
00> -32032
01> -43464
00> -31912
01> -43419
00> -31846
01> -43392
00> -31934
01> -43426
00> -32052
01> -43472
00> -32040
01> -43476
00> -31929
01> -43448
00> -31859
01> -43431
00> -31920
01> -43458
00> -32029
01> -43493
00> -32039
01> -43499
00> -31937
01> -43473
00> -31866
01> -43451
00> -31937
01> -43474
00> -32044
01> -43512
00> -32036
01> -43511
00> -31932
01> -43479
00> -31881
01> -43454
00> -31954
01> -43476
00> -32053
01> -43512
00> -32045
01> -43508
00> -31937
01> -43466
00> -31861
01> -43437
00> -31921
01> -43457
00> -32032
01> -43496
00> -32029
01> -43496
00> -31917
01> -43457
00> -31843
01> -43434
00> -31907
01> -43455
00> -32014
01> -43490
00> -32014
01> -43495
00> -31917
01> -43466
00> -31869
01> -43449
00> -31957
01> -43481
00> -32074
01> -43529
00> -32060
01> -43524
00> -31937
01> -43484
00> -31860
01> -43466
00> -31929
01> -43499
00> -32041
01> -43545
00> -32041
01> -43546
00> -31944
01> -43508
00> -31870
01> -43477
00> -31931
01> -43499
00> -32044
01> -43532
00> -32037
01> -43526
00> -31924
01> -43487
00> -31847
01> -43456
00> -31908
01> -43469
00> -32031
01> -43504
00> -32039
01> -43507
00> -31909
01> -43465
00> -31842
01> -43436
00> -31932
01> -43462
00> -32057
01> -43505
00> -32054
01> -43506
00> -31927
01> -43469
00> -31838
01> -43437
00> -31909
01> -43447
00> -32043
01> -43486
00> -32044
01> -43478
00> -31917
01> -43419
00> -31839
01> -43383
00> -31908
01> -43392
00> -32031
01> -43422
00> -32023
01> -43412
00> -31889
01> -43369
00> -31792
01> -43337
00> -31871
01> -43364
00> -32011
01> -43411
00> -32007
01> -43406
00> -31884
01> -43367
00> -31802
01> -43348
00> -31879
01> -43377
00> -32016
01> -43429
00> -32021
01> -43434
00> -31904
01> -43401
00> -31824
01> -43383
00> -31891
01> -43416
00> -32016
01> -43471
00> -32022
01> -43485
00> -31907
01> -43458
00> -31836
01> -43447
00> -31909
01> -43479
00> -32022
01> -43529
00> -32015
01> -43540
00> -31905
01> -43513
00> -31834
01> -43491
00> -31907
01> -43516
00> -32007
01> -43553
00> -32004
01> -43557
00> -31891
01> -43516
00> -31819
01> -43486
00> -31901
01> -43512
00> -32026
01> -43547
00> -32030
01> -43541
00> -31920
01> -43496
00> -31844
01> -43469
00> -31907
01> -43492
00> -32025
01> -43542
00> -32032
01> -43546
00> -31928
01> -43512
00> -31858
01> -43494
00> -31930
01> -43519
00> -32042
01> -43562
00> -32047
01> -43572
00> -31934
01> -43538
00> -31850
01> -43513
00> -31916
01> -43546
00> -32046
01> -43596
00> -32061
01> -43607
00> -31938
01> -43564
00> -31848
01> -43534
00> -31926
01> -43563
00> -32068
01> -43604
00> -32091
01> -43609
00> -31969
01> -43571
00> -31882
01> -43544
00> -31963
01> -43571
00> -32090
01> -43604
00> -32096
01> -43606
00> -31972
01> -43571
00> -31882
01> -43543
00> -31963
01> -43567
00> -32094
01> -43607
00> -32102
01> -43613
00> -31983
01> -43577
00> -31897
01> -43551
00> -31972
01> -43586
00> -32100
01> -43638
00> -32111
01> -43642
00> -31991
01> -43604
00> -31893
01> -43583
00> -31956
01> -43606
00> -32082
01> -43649
00> -32094
01> -43647
00> -31978
01> -43606
00> -31892
01> -43586
00> -31961
01> -43612
00> -32083
01> -43650
00> -32097
01> -43647
00> -31981
01> -43607
00> -31902
01> -43576
00> -31979
01> -43598
00> -32099
01> -43636
00> -32110
01> -43634
00> -31995
01> -43593
00> -31914
01> -43558
00> -31979
01> -43575
00> -32101
01> -43615
00> -32106
01> -43617
00> -31987
01> -43583
00> -31907
01> -43564
00> -31973
01> -43589
00> -32101
01> -43636
00> -32114
01> -43642
00> -32002
01> -43606
00> -31920
01> -43579
00> -31988
01> -43602
00> -32112
01> -43650
00> -32119
01> -43657
00> -31996
01> -43613
00> -31908
01> -43580
00> -31979
01> -43602
00> -32111
01> -43646
00> -32126
01> -43644
00> -32008
01> -43604
00> -31918
01> -43569
00> -31991
01> -43591
00> -32118
01> -43629
00> -32123
01> -43623
00> -32012
01> -43587
00> -31921
01> -43557
00> -31971
01> -43575
00> -32091
01> -43621
00> -32106
01> -43627
00> -31997
01> -43579
00> -31918
01> -43554
00> -31984
01> -43579
00> -32106
01> -43620
00> -32111
01> -43620
00> -31987
01> -43585
00> -31898
01> -43559
00> -31971
01> -43587
00> -32102
01> -43634
00> -32121
01> -43641
00> -32015
01> -43607
00> -31932
01> -43583
00> -31991
01> -43601
00> -32106
01> -43633
00> -32114
01> -43636
00> -31994
01> -43593
00> -31904
01> -43561
00> -31969
01> -43587
00> -32093
01> -43626
00> -32113
01> -43632
00> -32006
01> -43595
00> -31912
01> -43554
00> -31962
01> -43559
00> -32093
01> -43597
00> -32112
01> -43605
00> -31989
01> -43559
00> -31896
01> -43522
00> -31949
01> -43531
00> -32060
01> -43556
00> -32074
01> -43549
00> -31974
01> -43509
00> -31885
01> -43472
00> -31941
01> -43480
00> -32056
01> -43512
00> -32057
01> -43507
00> -31952
01> -43471
00> -31869
01> -43441
00> -31932
01> -43454
00> -32055
01> -43487
00> -32071
01> -43494
00> -31959
01> -43458
00> -31856
01> -43429
00> -31910
01> -43459
00> -32037
01> -43516
00> -32056
01> -43532
00> -31942
01> -43498
00> -31861
01> -43486
00> -31931
01> -43532
00> -32060
01> -43591
00> -32084
01> -43609
00> -31974
01> -43581
00> -31881
01> -43569
00> -31957
01> -43614
00> -32099
01> -43673
00> -32127
01> -43691
00> -32024
01> -43661
00> -31931
01> -43631
00> -31997
01> -43655
00> -32119
01> -43690
00> -32134
01> -43687
00> -32024
01> -43653
00> -31934
01> -43625
00> -31992
01> -43643
00> -32121
01> -43689
00> -32147
01> -43702
00> -32034
01> -43662
00> -31940
01> -43633
00> -32003
01> -43661
00> -32136
01> -43711
00> -32162
01> -43722
00> -32052
01> -43690
00> -31956
01> -43662
00> -32018
01> -43689
00> -32147
01> -43739
00> -32169
01> -43754
00> -32051
01> -43722
00> -31945
01> -43690
00> -32001
01> -43707
00> -32130
01> -43756
00> -32152
01> -43766
00> -32040
01> -43722
00> -31950
01> -43687
00> -32017
01> -43708
00> -32144
01> -43749
00> -32162
01> -43753
00> -32051
01> -43709
00> -31952
01> -43677
00> -32012
01> -43694
00> -32137
01> -43728
00> -32162
01> -43730
00> -32056
01> -43692
00> -31957
01> -43663
00> -32015
01> -43683
00> -32138
01> -43722
00> -32158
01> -43731
00> -32037
01> -43692
00> -31943
01> -43661
00> -32015
01> -43691
00> -32143
01> -43750
00> -32167
01> -43767
00> -32056
01> -43731
00> -31950
01> -43689
00> -32013
01> -43714
00> -32141
01> -43759
00> -32154
01> -43767
00> -32048
01> -43730
00> -31961
01> -43696
00> -32021
01> -43714
00> -32145
01> -43749
00> -32174
01> -43756
00> -32055
01> -43713
00> -31934
01> -43671
00> -31979
01> -43674
00> -32122
01> -43706
00> -32163
01> -43712
00> -32049
01> -43667
00> -31935
01> -43619
00> -31989
01> -43631
00> -32124
01> -43670
00> -32149
01> -43671
00> -32029
01> -43635
00> -31913
01> -43599
00> -31964
01> -43621
00> -32098
01> -43667
00> -32118
01> -43677
00> -32003
01> -43640
00> -31909
01> -43624
00> -31975
01> -43662
00> -32107
01> -43717
00> -32130
01> -43727
00> -32015
01> -43701
00> -31918
01> -43676
00> -31982
01> -43701
00> -32123
01> -43745
00> -32157
01> -43764
00> -32041
01> -43733
00> -31931
01> -43701
00> -31987
01> -43722
00> -32118
01> -43757
00> -32152
01> -43758
00> -32051
01> -43717
00> -31946
01> -43680
00> -31987
01> -43694
00> -32107
01> -43738
00> -32132
01> -43748
00> -32037
01> -43716
00> -31942
01> -43682
00> -31986
01> -43701
00> -32109
01> -43750
00> -32141
01> -43766
00> -32044
01> -43744
00> -31941
01> -43712
00> -31984
01> -43727
00> -32102
01> -43777
00> -32141
01> -43799
00> -32049
01> -43773
00> -31954
01> -43743
00> -32004
01> -43759
00> -32131
01> -43800
00> -32162
01> -43810
00> -32057
01> -43777
00> -31956
01> -43750
00> -32004
01> -43764
00> -32134
01> -43799
00> -32177
01> -43809
00> -32073
01> -43774
00> -31960
01> -43734
00> -32009
01> -43752
00> -32143
01> -43791
00> -32177
01> -43792
00> -32064
01> -43743
00> -31946
01> -43712
00> -31989
01> -43735
00> -32128
01> -43787
00> -32169
01> -43810
00> -32065
01> -43780
00> -31962
01> -43748
00> -32011
01> -43767
00> -32134
01> -43810
00> -32171
01> -43819
00> -32065
01> -43781
00> -31956
01> -43739
00> -31998
01> -43747
00> -32125
01> -43785
00> -32168
01> -43795
00> -32066
01> -43756
00> -31956
01> -43716
00> -31996
01> -43727
00> -32114
01> -43761
00> -32146
01> -43772
00> -32034
01> -43740
00> -31920
01> -43699
00> -31975
01> -43711
00> -32117
01> -43744
00> -32159
01> -43749
00> -32049
01> -43709
00> -31929
01> -43662
00> -31963
01> -43670
00> -32091
01> -43709
00> -32132
01> -43719
00> -32025
01> -43683
00> -31907
01> -43647
00> -31945
01> -43667
00> -32076
01> -43712
00> -32114
01> -43721
00> -32006
01> -43683
00> -31892
01> -43642
00> -31932
01> -43650
00> -32077
01> -43690
00> -32137
01> -43700
00> -32043
01> -43664
00> -31924
01> -43622
00> -31970
01> -43641
00> -32104
01> -43687
00> -32140
01> -43706
00> -32029
01> -43670
00> -31920
01> -43637
00> -31966
01> -43654
00> -32101
01> -43699
00> -32154
01> -43725
00> -32062
01> -43698
00> -31954
01> -43674
00> -31997
01> -43702
00> -32139
01> -43763
00> -32184
01> -43781
00> -32089
01> -43757
00> -31981
01> -43730
00> -32030
01> -43748
00> -32163
01> -43792
00> -32207
01> -43808
00> -32114
01> -43775
00> -32006
01> -43735
00> -32044
01> -43743
00> -32169
01> -43782
00> -32205
01> -43792
00> -32101
01> -43752
00> -32000
01> -43723
00> -32044
01> -43735
00> -32177
01> -43770
00> -32222
01> -43781
00> -32119
01> -43744
00> -32011
01> -43709
00> -32060
01> -43726
00> -32194
01> -43769
00> -32234
01> -43786
00> -32124
01> -43747
00> -32006
01> -43710
00> -32042
01> -43727
00> -32162
01> -43772
00> -32202
01> -43787
00> -32104
01> -43752
00> -31997
01> -43719
00> -32048
01> -43733
00> -32192
01> -43774
00> -32246
01> -43790
00> -32147
01> -43762
00> -32029
01> -43723
00> -32057
01> -43738
00> -32173
01> -43782
00> -32212
01> -43796
00> -32112
01> -43761
00> -32011
01> -43717
00> -32061
01> -43728
00> -32196
01> -43772
00> -32242
01> -43786
00> -32136
01> -43749
00> -32024
01> -43706
00> -32064
01> -43717
00> -32189
01> -43759
00> -32231
01> -43774
00> -32131
01> -43746
00> -32017
01> -43709
00> -32059
01> -43729
00> -32201
01> -43781
00> -32250
01> -43797
00> -32146
01> -43764
00> -32024
01> -43726
00> -32051
01> -43738
00> -32184
01> -43781
00> -32248
01> -43793
00> -32147
01> -43754
00> -32009
01> -43711
00> -32041
01> -43726
00> -32185
01> -43766
00> -32242
01> -43786
00> -32149
01> -43754
00> -32027
01> -43706
00> -32063
01> -43718
00> -32203
01> -43765
00> -32251
01> -43783
00> -32130
01> -43739
00> -32001
01> -43694
00> -32045
01> -43710
00> -32182
01> -43755
00> -32233
01> -43780
00> -32133
01> -43750
00> -32014
01> -43716
00> -32050
01> -43731
00> -32174
01> -43772
00> -32227
01> -43791
00> -32123
01> -43756
00> -32002
01> -43713
00> -32043
01> -43724
00> -32175
01> -43768
00> -32231
01> -43787
00> -32127
01> -43750
00> -32007
01> -43706
00> -32052
01> -43717
00> -32188
01> -43758
00> -32234
01> -43772
00> -32125
01> -43734
00> -31994
01> -43692
00> -32025
01> -43705
00> -32157
01> -43747
00> -32204
01> -43756
00> -32094
01> -43721
00> -31972
01> -43681
00> -32018
01> -43699
00> -32166
01> -43745
00> -32223
01> -43761
00> -32131
01> -43731
00> -32022
01> -43697
00> -32044
01> -43699
00> -32173
01> -43739
00> -32231
01> -43763
00> -32137
01> -43739
00> -32021
01> -43699
00> -32054
01> -43710
00> -32173
01> -43746
00> -32225
01> -43758
00> -32129
01> -43722
00> -32012
01> -43679
00> -32034
01> -43684
00> -32156
01> -43719
00> -32204
01> -43727
00> -32107
01> -43686
00> -31987
01> -43637
00> -32023
01> -43644
00> -32156
01> -43679
00> -32207
01> -43684
00> -32105
01> -43642
00> -31979
01> -43594
00> -32005
01> -43600
00> -32124
01> -43636
00> -32170
01> -43654
00> -32068
01> -43619
00> -31936
01> -43574
00> -31961
01> -43587
00> -32093
01> -43631
00> -32149
01> -43651
00> -32059
01> -43630
00> -31941
01> -43592
00> -31972
01> -43607
00> -32102
01> -43657
00> -32159
01> -43689
00> -32067
01> -43669
00> -31946
01> -43640
00> -31961
01> -43656
00> -32084
01> -43703
00> -32156
01> -43739
00> -32077
01> -43717
00> -31969
01> -43690
00> -32009
01> -43711
00> -32144
01> -43767
00> -32201
01> -43794
00> -32107
01> -43766
00> -31986
01> -43726
00> -32006
01> -43737
00> -32131
01> -43785
00> -32200
01> -43816
00> -32113
01> -43794
00> -32000
01> -43757
00> -32029
01> -43773
00> -32159
01> -43821
00> -32222
01> -43843
00> -32129
01> -43807
00> -32006
01> -43764
00> -32030
01> -43774
00> -32152
01> -43817
00> -32211
01> -43832
00> -32116
01> -43799
00> -31992
01> -43758
00> -32015
01> -43767
00> -32147
01> -43806
00> -32216
01> -43826
00> -32133
01> -43800
00> -32020
01> -43762
00> -32044
01> -43767
00> -32168
01> -43807
00> -32220
01> -43832
00> -32127
01> -43801
00> -32006
01> -43759
00> -32030
01> -43772
00> -32154
01> -43819
00> -32230
01> -43848
00> -32144
01> -43822
00> -32015
01> -43778
00> -32051
01> -43790
00> -32188
01> -43836
00> -32257
01> -43864
00> -32165
01> -43832
00> -32034
01> -43789
00> -32046
01> -43793
00> -32175
01> -43835
00> -32239
01> -43854
00> -32141
01> -43815
00> -32014
01> -43769
00> -32033
01> -43779
00> -32164
01> -43817
00> -32231
01> -43839
00> -32137
01> -43808
00> -32010
01> -43761
00> -32042
01> -43771
00> -32179
01> -43817
00> -32240
01> -43838
00> -32149
01> -43811
00> -32026
01> -43768
00> -32051
01> -43776
00> -32184
01> -43819
00> -32256
01> -43844
00> -32160
01> -43821
00> -32015
01> -43777
00> -32027
01> -43778
00> -32150
01> -43818
00> -32214
01> -43836
00> -32128
01> -43806
00> -32016
01> -43763
00> -32042
01> -43763
00> -32171
01> -43798
00> -32233
01> -43810
00> -32141
01> -43779
00> -32014
01> -43731
00> -32031
01> -43736
00> -32155
01> -43778
00> -32207
01> -43794
00> -32120
01> -43769
00> -32002
01> -43734
00> -32019
01> -43740
00> -32156
01> -43786
00> -32234
01> -43807
00> -32159
01> -43780
00> -32048
01> -43745
00> -32072
01> -43753
00> -32194
01> -43802
00> -32256
01> -43830
00> -32161
01> -43798
00> -32031
01> -43761
00> -32062
01> -43776
00> -32200
01> -43819
00> -32272
01> -43833
00> -32177
01> -43795
00> -32041
01> -43748
00> -32046
01> -43742
00> -32172
01> -43779
00> -32246
01> -43796
00> -32167
01> -43761
00> -32044
01> -43708
00> -32051
01> -43705
00> -32166
01> -43736
00> -32233
01> -43749
00> -32152
01> -43711
00> -32027
01> -43660
00> -32042
01> -43659
00> -32166
01> -43696
00> -32227
01> -43716
00> -32121
01> -43677
00> -31985
01> -43629
00> -32002
01> -43638
00> -32132
01> -43686
00> -32214
01> -43723
00> -32139
01> -43704
00> -32013
01> -43662
00> -32023
01> -43671
00> -32150
01> -43723
00> -32217
01> -43752
00> -32132
01> -43728
00> -32011
01> -43685
00> -32030
01> -43693
00> -32166
01> -43743
00> -32237
01> -43764
00> -32148
01> -43729
00> -32021
01> -43688
00> -32031
01> -43691
00> -32152
01> -43729
00> -32222
01> -43751
00> -32134
01> -43712
00> -32012
01> -43665
00> -32029
01> -43674
00> -32160
01> -43720
00> -32238
01> -43743
00> -32151
01> -43713
00> -32024
01> -43676
00> -32031
01> -43683
00> -32157
01> -43725
00> -32232
01> -43759
00> -32151
01> -43736
00> -32036
01> -43702
00> -32053
01> -43711
00> -32182
01> -43757
00> -32266
01> -43789
00> -32179
01> -43765
00> -32045
01> -43722
00> -32051
01> -43727
00> -32179
01> -43766
00> -32254
01> -43786
00> -32171
01> -43765
00> -32032
01> -43722
00> -32029
01> -43717
00> -32151
01> -43753
00> -32237
01> -43782
00> -32166
01> -43762
00> -32050
01> -43721
00> -32064
01> -43720
00> -32187
01> -43760
00> -32259
01> -43778
00> -32173
01> -43746
00> -32042
01> -43700
00> -32056
01> -43703
00> -32189
01> -43756
00> -32272
01> -43789
00> -32198
01> -43768
00> -32067
01> -43727
00> -32076
01> -43733
00> -32199
01> -43779
00> -32277
01> -43809
00> -32198
01> -43792
00> -32069
01> -43754
00> -32072
01> -43754
00> -32199
01> -43797
00> -32289
01> -43825
00> -32219
01> -43802
00> -32084
01> -43759
00> -32080
01> -43758
00> -32204
01> -43798
00> -32283
01> -43827
00> -32206
01> -43801
00> -32079
01> -43757
00> -32078
01> -43753
00> -32196
01> -43789
00> -32279
01> -43813
00> -32204
01> -43784
00> -32077
01> -43737
00> -32072
01> -43741
00> -32192
01> -43781
00> -32277
01> -43809
00> -32209
01> -43795
00> -32083
01> -43757
00> -32079
01> -43756
00> -32196
01> -43796
00> -32285
01> -43827
00> -32222
01> -43801
00> -32093
01> -43754
00> -32097
01> -43756
00> -32223
01> -43799
00> -32301
01> -43831
00> -32222
01> -43802
00> -32090
01> -43759
00> -32087
01> -43758
00> -32212
01> -43797
00> -32288
01> -43818
00> -32208
01> -43792
00> -32076
01> -43752
00> -32079
01> -43749
00> -32199
01> -43782
00> -32273
01> -43799
00> -32202
01> -43769
00> -32081
01> -43721
00> -32081
01> -43724
00> -32189
01> -43768
00> -32266
01> -43796
00> -32193
01> -43770
00> -32068
01> -43728
00> -32076
01> -43732
00> -32201
01> -43774
00> -32287
01> -43795
00> -32214
01> -43774
00> -32090
01> -43739
00> -32095
01> -43743
00> -32218
01> -43785
00> -32294
01> -43816
00> -32222
01> -43792
00> -32106
01> -43753
00> -32104
01> -43750
00> -32216
01> -43787
00> -32295
01> -43812
00> -32218
01> -43786
00> -32094
01> -43740
00> -32091
01> -43737
00> -32198
01> -43774
00> -32261
01> -43794
00> -32184
01> -43766
00> -32084
01> -43722
00> -32096
01> -43719
00> -32208
01> -43761
00> -32286
01> -43791
00> -32224
01> -43767
00> -32109
01> -43727
00> -32109
01> -43729
00> -32209
01> -43767
00> -32277
01> -43798
00> -32215
01> -43777
00> -32119
01> -43747
00> -32123
01> -43748
00> -32220
01> -43780
00> -32281
01> -43798
00> -32226
01> -43772
00> -32121
01> -43733
00> -32107
01> -43728
00> -32194
01> -43762
00> -32261
01> -43793
00> -32216
01> -43773
00> -32121
01> -43737
00> -32106
01> -43727
00> -32179
01> -43742
00> -32229
01> -43756
00> -32168
01> -43731
00> -32082
01> -43695
00> -32090
01> -43688
00> -32176
01> -43706
00> -32231
01> -43716
00> -32172
01> -43684
00> -32082
01> -43642
00> -32080
01> -43639
00> -32162
01> -43667
00> -32218
01> -43689
00> -32164
01> -43672
00> -32062
01> -43632
00> -32054
01> -43619
00> -32137
01> -43639
00> -32189
01> -43651
00> -32132
01> -43624
00> -32042
01> -43588
00> -32032

00> -32109
01> -43609
00> -32157
01> -43628
00> -32107
01> -43614
00> -32014
01> -43574
00> -32008
01> -43579
00> -32086
01> -43608
00> -32139
01> -43624
00> -32099
01> -43611
00> -32034
01> -43594
00> -32041
01> -43611
00> -32117
01> -43654
00> -32177
01> -43691
00> -32129
01> -43690
00> -32038
01> -43669
00> -32032
01> -43683
00> -32109
01> -43727
00> -32171
01> -43759
00> -32141
01> -43756
00> -32060
01> -43735
00> -32052
01> -43738
00> -32112
01> -43772
00> -32165
01> -43796
00> -32138
01> -43794
00> -32071
01> -43773
00> -32064
01> -43775
00> -32132
01> -43803
00> -32179
01> -43820
00> -32127
01> -43801
00> -32037
01> -43765
00> -32037
01> -43765
00> -32123
01> -43794
00> -32182
01> -43812
00> -32147
01> -43795
00> -32068
01> -43761
00> -32056
01> -43760
00> -32127
01> -43789
00> -32184
01> -43816
00> -32147
01> -43807
00> -32067
01> -43779
00> -32067
01> -43779
00> -32149
01> -43814
00> -32202
01> -43842
00> -32166
01> -43836
00> -32081
01> -43806
00> -32070
01> -43799
00> -32139
01> -43824
00> -32193
01> -43840
00> -32155
01> -43823
00> -32085
01> -43792
00> -32082
01> -43786
00> -32137
01> -43798
00> -32188
01> -43809
00> -32147
01> -43799
00> -32065
01> -43771
00> -32059
01> -43767
00> -32126
01> -43792
00> -32180
01> -43809
00> -32137
01> -43785
00> -32052
01> -43749
00> -32041
01> -43742
00> -32109
01> -43769
00> -32164
01> -43789
00> -32129
01> -43776
00> -32057
01> -43754
00> -32049
01> -43755
00> -32117
01> -43791
00> -32177
01> -43826
00> -32149
01> -43819
00> -32076
01> -43789
00> -32073
01> -43794
00> -32137
01> -43822
00> -32189
01> -43846
00> -32160
01> -43842
00> -32086
01> -43814
00> -32067
01> -43809
00> -32117
01> -43827
00> -32162
01> -43844
00> -32126
01> -43826
00> -32052
01> -43791
00> -32047
01> -43778
00> -32106
01> -43795
00> -32155
01> -43816
00> -32130
01> -43809
00> -32066
01> -43778
00> -32057
01> -43767
00> -32112
01> -43789
00> -32150
01> -43808
00> -32114
01> -43794
00> -32050
01> -43774
00> -32044
01> -43777
00> -32102
01> -43804
00> -32150
01> -43823
00> -32135
01> -43820
00> -32077
01> -43796
00> -32067
01> -43796
00> -32117
01> -43812
00> -32172
01> -43840
00> -32151
01> -43834
00> -32084
01> -43805
00> -32077
01> -43799
00> -32136
01> -43819
00> -32184
01> -43831
00> -32151
01> -43814
00> -32083
01> -43777
00> -32073
01> -43760
00> -32134
01> -43789
00> -32188
01> -43807
00> -32166
01> -43790
00> -32099
01> -43756
00> -32084
01> -43747
00> -32142
01> -43777
00> -32191
01> -43798
00> -32167
01> -43790
00> -32113
01> -43770
00> -32114
01> -43777
00> -32169
01> -43807
00> -32207
01> -43826
00> -32176
01> -43819
00> -32107
01> -43801
00> -32093
01> -43791
00> -32152
01> -43812
00> -32217
01> -43836
00> -32207
01> -43827
00> -32144
01> -43794
00> -32126
01> -43785
00> -32180
01> -43805
00> -32234
01> -43824
00> -32216
01> -43814
00> -32149
01> -43787
00> -32132
01> -43777
00> -32179
01> -43792
00> -32221
01> -43801
00> -32195
01> -43788
00> -32134
01> -43758
00> -32121
01> -43750
00> -32176
01> -43772
00> -32224
01> -43797
00> -32200
01> -43795
00> -32142
01> -43776
00> -32129
01> -43779
00> -32182
01> -43804
00> -32237
01> -43824
00> -32218
01> -43816
00> -32161
01> -43786
00> -32146
01> -43782
00> -32191
01> -43809
00> -32239
01> -43833
00> -32216
01> -43827
00> -32156
01> -43797
00> -32142
01> -43787
00> -32198
01> -43806
00> -32246
01> -43822
00> -32222
01> -43815
00> -32159
01> -43786
00> -32146
01> -43782
00> -32194
01> -43799
00> -32227
01> -43809
00> -32204
01> -43795
00> -32149
01> -43761
00> -32142
01> -43752
00> -32189
01> -43772
00> -32231
01> -43782
00> -32216
01> -43771
00> -32159
01> -43736
00> -32130
01> -43720
00> -32169
01> -43732
00> -32210
01> -43741
00> -32181
01> -43717
00> -32120
01> -43684
00> -32096
01> -43674
00> -32137
01> -43680
00> -32175
01> -43680
00> -32139
01> -43646
00> -32066
01> -43601
00> -32049
01> -43586
00> -32089
01> -43603
00> -32137
01> -43622
00> -32127
01> -43616
00> -32069
01> -43588
00> -32046
01> -43581
00> -32084
01> -43599
00> -32122
01> -43616
00> -32089
01> -43611
00> -32019
01> -43587
00> -31984
01> -43579
00> -32016
01> -43606
00> -32069
01> -43634
00> -32057
01> -43636
00> -32002
01> -43614
00> -31989
01> -43617
00> -32019
01> -43651
00> -32046
01> -43674
00> -32025
01> -43669
00> -31982
01> -43656
00> -31974
01> -43660
00> -32027
01> -43694
00> -32079
01> -43721
00> -32068
01> -43713
00> -32011
01> -43688
00> -31999
01> -43684
00> -32051
01> -43708
00> -32107
01> -43732
00> -32088
01> -43730
00> -32027
01> -43706
00> -32008
01> -43701
00> -32055
01> -43718
00> -32098
01> -43733
00> -32074
01> -43717
00> -32020
01> -43689
00> -32019
01> -43696
00> -32079
01> -43724
00> -32121
01> -43745
00> -32101
01> -43739
00> -32042
01> -43713
00> -32031
01> -43710
00> -32081
01> -43737
00> -32130
01> -43768
00> -32111
01> -43762
00> -32057
01> -43734
00> -32044
01> -43727
00> -32084
01> -43746
00> -32133
01> -43766
00> -32124
01> -43755
00> -32075
01> -43733
00> -32063
01> -43731
00> -32107
01> -43750
00> -32146
01> -43769
00> -32127
01> -43759
00> -32066
01> -43727
00> -32049
01> -43726
00> -32097
01> -43744
00> -32137
01> -43762
00> -32111
01> -43757
00> -32058
01> -43734
00> -32057
01> -43729
00> -32119
01> -43756
00> -32171
01> -43777
00> -32148
01> -43764
00> -32079
01> -43733
00> -32058
01> -43727
00> -32106
01> -43749
00> -32158
01> -43775
00> -32142
01> -43767
00> -32084
01> -43739
00> -32073
01> -43738
00> -32118
01> -43761
00> -32164
01> -43783
00> -32146
01> -43774
00> -32091
01> -43746
00> -32075
01> -43744
00> -32123
01> -43765
00> -32177
01> -43784
00> -32162
01> -43767
00> -32103
01> -43733
00> -32089
01> -43722
00> -32124
01> -43737
00> -32169
01> -43757
00> -32148
01> -43747
00> -32094
01> -43724
00> -32076
01> -43713
00> -32119
01> -43735
00> -32160
01> -43757
00> -32145
01> -43751
00> -32095
01> -43739
00> -32076
01> -43736
00> -32113
01> -43752
00> -32156
01> -43772
00> -32141
01> -43764
00> -32083
01> -43732
00> -32061
01> -43717
00> -32095
01> -43723
00> -32135
01> -43727
00> -32123
01> -43712
00> -32066
01> -43682
00> -32044
01> -43659
00> -32081
01> -43663
00> -32114
01> -43666
00> -32091
01> -43639
00> -32029
01> -43597
00> -31996
01> -43573
00> -32034
01> -43584
00> -32077
01> -43592
00> -32058
01> -43572
00> -31998
01> -43539
00> -31979
01> -43527
00> -32018
01> -43544
00> -32057
01> -43567
00> -32039
01> -43562
00> -31988
01> -43542
00> -31978
01> -43539
00> -32026
01> -43571
00> -32073
01> -43599
00> -32051
01> -43602
00> -31982
01> -43582
00> -31965
01> -43587
00> -32014
01> -43625
00> -32066
01> -43651
00> -32047
01> -43650
00> -31992
01> -43634
00> -31984
01> -43634
00> -32032
01> -43664
00> -32087
01> -43699
00> -32063
01> -43692
00> -32000
01> -43672
00> -31987
01> -43672
00> -32039
01> -43699
00> -32094
01> -43723
00> -32084
01> -43713
00> -32037
01> -43691
00> -32029
01> -43690
00> -32081
01> -43721
00> -32138
01> -43761
00> -32127
01> -43764
00> -32079
01> -43747
00> -32066
01> -43747
00> -32097
01> -43768
00> -32146
01> -43794
00> -32134
01> -43787
00> -32086
01> -43764
00> -32067
01> -43756
00> -32118
01> -43776
00> -32173
01> -43804
00> -32169
01> -43796
00> -32118
01> -43767
00> -32092
01> -43754
00> -32132
01> -43774
00> -32184
01> -43796
00> -32171
01> -43783
00> -32112
01> -43754
00> -32086
01> -43744
00> -32124
01> -43760
00> -32175
01> -43782
00> -32159
01> -43766
00> -32099
01> -43734
00> -32081
01> -43731
00> -32122
01> -43753
00> -32171
01> -43776
00> -32158
01> -43773
00> -32109
01> -43752
00> -32090
01> -43745
00> -32137
01> -43772
00> -32191
01> -43797
00> -32174
01> -43788
00> -32121
01> -43766
00> -32099
01> -43756
00> -32142
01> -43778
00> -32187
01> -43807
00> -32166
01> -43792
00> -32106
01> -43762
00> -32086
01> -43754
00> -32127
01> -43772
00> -32173
01> -43790
00> -32161
01> -43782
00> -32109
01> -43747
00> -32088
01> -43729
00> -32129
01> -43748
00> -32174
01> -43771
00> -32159
01> -43764
00> -32106
01> -43739
00> -32083
01> -43731
00> -32126
01> -43751
00> -32181
01> -43776
00> -32167
01> -43769
00> -32115
01> -43749
00> -32107
01> -43746
00> -32152
01> -43771
00> -32202
01> -43793
00> -32189
01> -43785
00> -32129
01> -43758
00> -32101
01> -43748
00> -32127
01> -43757
00> -32169
01> -43771
00> -32159
01> -43766
00> -32117
01> -43751
00> -32106
01> -43752
00> -32135
01> -43767
00> -32166
01> -43778
00> -32149
01> -43767
00> -32112
01> -43753
00> -32111
01> -43749
00> -32152
01> -43763
00> -32193
01> -43779
00> -32175
01> -43763
00> -32107
01> -43724
00> -32087
01> -43711
00> -32130
01> -43726
00> -32176
01> -43740
00> -32162
01> -43728
00> -32097
01> -43699
00> -32060
01> -43684
00> -32098
01> -43694
00> -32163
01> -43718
00> -32157
01> -43709
00> -32091
01> -43671
00> -32062
01> -43660
00> -32104
01> -43679
00> -32163
01> -43697
00> -32154
01> -43679
00> -32104
01> -43646
00> -32071
01> -43629
00> -32096
01> -43641
00> -32153
01> -43661
00> -32155
01> -43661
00> -32115
01> -43642
00> -32101
01> -43629
00> -32147
01> -43647
00> -32201
01> -43667
00> -32197
01> -43667
00> -32143
01> -43649
00> -32116
01> -43645
00> -32154
01> -43676
00> -32209
01> -43708
00> -32207
01> -43716
00> -32159
01> -43700
00> -32140
01> -43697
00> -32184
01> -43731
00> -32236
01> -43762
00> -32234
01> -43767
00> -32185
01> -43756
00> -32167
01> -43754
00> -32206
01> -43776
00> -32261
01> -43806
00> -32256
01> -43797
00> -32191
01> -43768
00> -32164
01> -43760
00> -32217
01> -43787
00> -32287
01> -43822
00> -32281
01> -43821
00> -32227
01> -43791
00> -32198
01> -43778
00> -32236
01> -43788
00> -32284
01> -43814
00> -32267
01> -43811
00> -32211
01> -43787
00> -32195
01> -43780
00> -32236
01> -43800
00> -32284
01> -43824
00> -32273
01> -43818
00> -32224
01> -43802
00> -32204
01> -43801
00> -32246
01> -43825
00> -32297
01> -43851
00> -32281
01> -43851
00> -32224
01> -43824
00> -32207
01> -43812
00> -32252
01> -43840
00> -32302
01> -43868
00> -32291
01> -43856
00> -32242
01> -43831
00> -32217
01> -43818
00> -32247
01> -43832
00> -32286
01> -43854
00> -32277
01> -43845
00> -32224
01> -43819
00> -32196
01> -43804
00> -32229
01> -43822
00> -32274
01> -43833
00> -32266
01> -43824
00> -32221
01> -43799
00> -32204
01> -43789
00> -32246
01> -43810
00> -32295
01> -43836
00> -32283
01> -43825
00> -32224
01> -43797
00> -32198
01> -43786
00> -32232
01> -43806
00> -32281
01> -43830
00> -32271
01> -43823
00> -32222
01> -43794
00> -32202
01> -43782
00> -32240
01> -43799
00> -32281
01> -43818
00> -32260
01> -43807
00> -32204
01> -43776
00> -32186
01> -43767
00> -32224
01> -43782
00> -32267
01> -43801
00> -32246
01> -43794
00> -32181
01> -43764
00> -32149
01> -43749
00> -32195
01> -43760
00> -32240
01> -43775
00> -32214
01> -43754
00> -32145
01> -43711
00> -32114
01> -43692
00> -32146
01> -43711
00> -32186
01> -43730
00> -32164
01> -43714
00> -32092
01> -43676
00> -32047
01> -43657
00> -32081
01> -43667
00> -32127
01> -43683
00> -32116
01> -43673
00> -32054
01> -43634
00> -32012
01> -43601
00> -32035
01> -43607
00> -32072
01> -43618
00> -32057
01> -43599
00> -31992
01> -43566
00> -31953
01> -43547
00> -31974
01> -43556
00> -32009
01> -43569
00> -31990
01> -43556
00> -31930
01> -43525
00> -31901
01> -43509
00> -31937
01> -43523
00> -31986
01> -43541
00> -31976
01> -43533
00> -31926
01> -43504
00> -31896
01> -43487
00> -31928
01> -43506
00> -31977
01> -43536
00> -31966
01> -43537
00> -31917
01> -43517
00> -31897
01> -43512
00> -31929
01> -43530
00> -31986
01> -43558
00> -31981
01> -43551
00> -31927
01> -43520
00> -31901
01> -43507
00> -31937
01> -43524
00> -31992
01> -43545
00> -31983
01> -43539
00> -31920
01> -43507
00> -31882
01> -43482
00> -31913
01> -43492
00> -31982
01> -43521
00> -31991
01> -43519
00> -31942
01> -43492
00> -31914
01> -43481
00> -31947
01> -43497
00> -31994
01> -43527
00> -31989
01> -43522
00> -31943
01> -43494
00> -31922
01> -43480
00> -31965
01> -43507
00> -32018
01> -43538
00> -32011
01> -43537
00> -31966
01> -43519
00> -31946
01> -43521
00> -31984
01> -43546
00> -32031
01> -43574
00> -32026
01> -43577
00> -31986
01> -43564
00> -31963
01> -43561
00> -32002
01> -43579
00> -32056
01> -43606
00> -32051
01> -43600
00> -32012
01> -43582
00> -31994
01> -43574
00> -32032
01> -43589
00> -32074
01> -43616
00> -32058
01> -43607
00> -32011
01> -43581
00> -31990
01> -43565
00> -32031
01> -43584
00> -32086
01> -43609
00> -32085
01> -43610
00> -32037
01> -43589
00> -32006
01> -43578
00> -32037
01> -43598
00> -32084
01> -43627
00> -32070
01> -43626
00> -32020
01> -43611
00> -32001
01> -43607
00> -32039
01> -43631
00> -32099
01> -43662
00> -32112
01> -43662
00> -32068
01> -43638
00> -32035
01> -43628
00> -32067
01> -43645
00> -32113
01> -43668
00> -32108
01> -43668
00> -32054
01> -43648
00> -32025
01> -43632
00> -32061
01> -43648
00> -32119
01> -43669
00> -32117
01> -43664
00> -32064
01> -43638
00> -32033
01> -43622
00> -32063
01> -43639
00> -32118
01> -43667
00> -32104
01> -43657
00> -32045
01> -43628
00> -32014
01> -43612
00> -32047
01> -43629
00> -32096
01> -43651
00> -32086
01> -43645
00> -32026
01> -43619
00> -31996
01> -43608
00> -32039
01> -43636
00> -32101
01> -43665
00> -32099
01> -43662
00> -32042
01> -43631
00> -32011
01> -43621
00> -32047
01> -43636
00> -32098
01> -43660
00> -32094
01> -43659
00> -32039
01> -43641
00> -32008
01> -43628
00> -32038
01> -43651
00> -32086
01> -43681
00> -32086
01> -43679
00> -32040
01> -43654
00> -32011
01> -43638
00> -32046
01> -43652
00> -32094
01> -43671
00> -32085
01> -43662
00> -32031
01> -43637
00> -31999
01> -43626
00> -32027
01> -43641
00> -32076
01> -43666
00> -32081
01> -43667
00> -32037
01> -43647
00> -32018
01> -43640
00> -32069
01> -43664
00> -32130
01> -43691
00> -32128
01> -43691
00> -32070
01> -43667
00> -32036
01> -43656
00> -32071
01> -43672
00> -32122
01> -43696
00> -32113
01> -43689
00> -32057
01> -43661
00> -32024
01> -43649
00> -32052
01> -43667
00> -32101
01> -43682
00> -32101
01> -43678
00> -32055
01> -43656
00> -32029
01> -43641
00> -32066
01> -43655
00> -32119
01> -43675
00> -32118
01> -43671
00> -32061
01> -43648
00> -32025
01> -43629
00> -32047
01> -43629
00> -32092
01> -43641
00> -32089
01> -43635
00> -32046
01> -43616
00> -32026
01> -43610
00> -32070
01> -43632
00> -32134
01> -43665
00> -32141
01> -43674
00> -32090
01> -43651
00> -32059
01> -43639
00> -32101
01> -43659
00> -32157
01> -43692
00> -32158
01> -43696
00> -32108
01> -43682
00> -32084
01> -43678
00> -32114
01> -43699
00> -32163
01> -43722
00> -32174
01> -43724
00> -32133
01> -43704
00> -32099
01> -43689
00> -32126
01> -43699
00> -32169
01> -43716
00> -32161
01> -43710
00> -32111
01> -43684
00> -32085
01> -43669
00> -32120
01> -43682
00> -32169
01> -43710
00> -32169
01> -43716
00> -32122
01> -43695
00> -32086
01> -43686
00> -32116
01> -43704
00> -32177
01> -43740
00> -32185
01> -43746
00> -32136
01> -43720
00> -32099
01> -43702
00> -32128
01> -43722
00> -32182
01> -43749
00> -32184
01> -43751
00> -32131
01> -43731
00> -32093
01> -43722
00> -32127
01> -43737
00> -32189
01> -43765
00> -32190
01> -43757
00> -32140
01> -43732
00> -32110
01> -43721
00> -32136
01> -43734
00> -32192
01> -43761
00> -32194
01> -43761
00> -32149
01> -43737
00> -32119
01> -43718
00> -32147
01> -43730
00> -32199
01> -43756
00> -32207
01> -43757
00> -32157
01> -43733
00> -32122
01> -43720
00> -32151
01> -43739
00> -32207
01> -43772
00> -32204
01> -43772
00> -32151
01> -43747
00> -32121
01> -43735
00> -32158
01> -43749
00> -32219
01> -43769
00> -32224
01> -43771
00> -32163
01> -43744
00> -32119
01> -43718
00> -32147
01> -43727
00> -32202
01> -43749
00> -32206
01> -43746
00> -32158
01> -43721
00> -32121
01> -43697
00> -32147
01> -43711
00> -32199
01> -43735
00> -32198
01> -43737
00> -32139
01> -43710
00> -32104
01> -43686
00> -32137
01> -43697
00> -32198
01> -43724
00> -32201
01> -43729
00> -32143
01> -43701
00> -32109
01> -43684
00> -32144
01> -43696
00> -32201
01> -43723
00> -32198
01> -43724
00> -32148
01> -43705
00> -32115
01> -43691
00> -32138
01> -43701
00> -32190
01> -43731
00> -32197
01> -43733
00> -32146
01> -43706
00> -32109
01> -43683
00> -32139
01> -43699
00> -32197
01> -43724
00> -32198
01> -43720
00> -32145
01> -43691
00> -32114
01> -43671
00> -32137
01> -43679
00> -32183
01> -43702
00> -32186
01> -43699
00> -32134
01> -43672
00> -32097
01> -43656
00> -32116
01> -43663
00> -32160
01> -43682
00> -32169
01> -43682
00> -32125
01> -43652
00> -32096
01> -43629
00> -32124
01> -43638
00> -32175
01> -43666
00> -32177
01> -43671
00> -32122
01> -43649
00> -32080
01> -43641
00> -32110
01> -43664
00> -32175
01> -43691
00> -32192
01> -43696
00> -32151
01> -43680
00> -32112
01> -43660
00> -32143
01> -43672
00> -32197
01> -43700
00> -32199
01> -43705
00> -32147
01> -43682
00> -32111
01> -43662
00> -32137
01> -43673
00> -32191
01> -43696
00> -32198
01> -43697
00> -32152
01> -43669
00> -32111
01> -43651
00> -32127
01> -43664
00> -32178
01> -43689
00> -32180
01> -43688
00> -32122
01> -43652
00> -32090
01> -43629
00> -32120
01> -43646
00> -32173
01> -43670
00> -32174
01> -43672
00> -32117
01> -43651
00> -32072
01> -43636
00> -32104
01> -43656
00> -32176
01> -43691
00> -32181
01> -43702
00> -32124
01> -43681
00> -32088
01> -43670
00> -32119
01> -43684
00> -32184
01> -43710
00> -32194
01> -43711
00> -32139
01> -43686
00> -32094
01> -43661
00> -32120
01> -43673
00> -32169
01> -43695
00> -32171
01> -43689
00> -32125
01> -43667
00> -32078
01> -43649
00> -32089
01> -43649
00> -32136
01> -43664
00> -32140
01> -43661
00> -32098
01> -43635
00> -32071
01> -43617
00> -32103
01> -43627
00> -32157
01> -43648
00> -32154
01> -43644
00> -32092
01> -43622
00> -32055
01> -43607
00> -32096
01> -43627
00> -32152
01> -43657
00> -32162
01> -43668
00> -32115
01> -43647
00> -32077
01> -43632
00> -32105
01> -43647
00> -32167
01> -43680
00> -32179
01> -43684
00> -32131
01> -43658
00> -32088
01> -43642
00> -32107
01> -43657
00> -32146
01> -43681
00> -32143
01> -43684
00> -32096
01> -43661
00> -32065
01> -43641
00> -32102
01> -43656
00> -32165
01> -43679
00> -32166
01> -43676
00> -32112
01> -43647
00> -32074
01> -43626
00> -32101
01> -43634
00> -32153
01> -43656
00> -32166
01> -43659
00> -32121
01> -43636
00> -32083
01> -43622
00> -32094
01> -43636
00> -32135
01> -43657
00> -32139
01> -43661
00> -32095
01> -43647
00> -32070
01> -43637
00> -32106
01> -43653
00> -32161
01> -43684
00> -32159
01> -43684
00> -32100
01> -43656
00> -32060
01> -43636
00> -32092
01> -43650
00> -32155
01> -43672
00> -32166
01> -43673
00> -32109
01> -43647
00> -32067
01> -43626
00> -32096
01> -43635
00> -32151
01> -43662
00> -32152
01> -43661
00> -32099
01> -43631
00> -32061
01> -43611
00> -32089
01> -43618
00> -32147
01> -43643
00> -32162
01> -43644
00> -32118
01> -43624
00> -32076
01> -43607
00> -32097
01> -43614
00> -32148
01> -43636
00> -32154
01> -43641
00> -32109
01> -43622
00> -32075
01> -43607
00> -32092
01> -43619
00> -32143
01> -43645
00> -32146
01> -43647
00> -32091
01> -43620
00> -32054
01> -43600
00> -32076
01> -43614
00> -32121
01> -43634
00> -32126
01> -43638
00> -32069
01> -43614
00> -32016
01> -43589
00> -32041
01> -43598
00> -32105
01> -43622
00> -32119
01> -43626
00> -32069
01> -43599
00> -32040
01> -43578
00> -32069
01> -43594
00> -32132
01> -43619
00> -32149
01> -43622
00> -32092
01> -43596
00> -32044
01> -43572
00> -32061
01> -43579
00> -32116
01> -43609
00> -32133
01> -43619
00> -32090
01> -43606
00> -32043
01> -43586
00> -32059
01> -43597
00> -32112
01> -43625
00> -32120
01> -43637
00> -32072
01> -43617
00> -32037
01> -43599
00> -32067
01> -43613
00> -32122
01> -43637
00> -32129
01> -43640
00> -32075
01> -43613
00> -32031
01> -43597
00> -32054
01> -43609
00> -32109
01> -43632
00> -32120
01> -43634
00> -32079
01> -43612
00> -32044
01> -43591
00> -32066
01> -43602
00> -32116
01> -43625
00> -32125
01> -43624
00> -32071
01> -43599
00> -32022
01> -43574
00> -32046
01> -43591
00> -32106
01> -43622
00> -32121
01> -43633
00> -32096
01> -43620
00> -32071
01> -43607
00> -32089
01> -43622
00> -32133
01> -43648
00> -32144
01> -43651
00> -32097
01> -43630
00> -32066
01> -43619
00> -32094
01> -43639
00> -32152
01> -43671
00> -32158
01> -43676
00> -32107
01> -43652
00> -32059
01> -43627
00> -32081
01> -43639
00> -32141
01> -43672
00> -32154
01> -43676
00> -32101
01> -43652
00> -32050
01> -43630
00> -32076
01> -43640
00> -32145
01> -43667
00> -32159
01> -43667
00> -32117
01> -43644
00> -32079
01> -43622
00> -32094
01> -43632
00> -32143
01> -43656
00> -32145
01> -43660
00> -32095
01> -43639
00> -32062
01> -43624
00> -32099
01> -43648
00> -32157
01> -43681
00> -32167
01> -43682
00> -32121
01> -43662
00> -32082
01> -43649
00> -32107
01> -43666
00> -32155
01> -43687
00> -32161
01> -43684
00> -32125
01> -43659
00> -32092
01> -43639
00> -32116
01> -43649
00> -32176
01> -43672
00> -32186
01> -43669
00> -32130
01> -43637
00> -32082
01> -43612
00> -32101
01> -43621
00> -32159
01> -43644
00> -32170
01> -43639
00> -32124
01> -43616
00> -32084
01> -43591
00> -32112
01> -43592
00> -32180
01> -43616
00> -32197
01> -43619
00> -32144
01> -43597
00> -32092
01> -43580
00> -32114
01> -43592
00> -32182
01> -43619
00> -32195
01> -43622
00> -32141
01> -43596
00> -32093
01> -43571
00> -32117
01> -43579
00> -32176
01> -43606
00> -32189
01> -43609
00> -32142
01> -43591
00> -32100
01> -43571
00> -32124
01> -43579
00> -32185
01> -43602
00> -32206
01> -43604
00> -32170
01> -43583
00> -32128
01> -43561
00> -32146
01> -43570
00> -32201
01> -43587
00> -32216
01> -43589
00> -32168
01> -43568
00> -32121
01> -43547
00> -32137
01> -43555
00> -32196
01> -43577
00> -32214
01> -43577
00> -32173
01> -43548
00> -32123
01> -43522
00> -32134
01> -43532
00> -32185
01> -43555
00> -32199
01> -43562
00> -32160
01> -43544
00> -32120
01> -43517
00> -32143
01> -43514
00> -32202
01> -43531
00> -32216
01> -43536
00> -32168
01> -43515
00> -32119
01> -43494
00> -32133
01> -43511
00> -32185
01> -43537
00> -32205
01> -43545
00> -32161
01> -43522
00> -32112
01> -43496
00> -32127
01> -43509
00> -32182
01> -43536
00> -32201
01> -43544
00> -32159
01> -43527
00> -32112
01> -43509
00> -32130
01> -43522
00> -32186
01> -43548
00> -32213
01> -43565
00> -32182
01> -43556
00> -32144
01> -43538
00> -32172
01> -43551
00> -32241
01> -43586
00> -32259
01> -43596
00> -32211
01> -43581
00> -32156
01> -43557
00> -32168
01> -43566
00> -32222
01> -43592
00> -32244
01> -43602
00> -32200
01> -43583
00> -32144
01> -43560
00> -32152
01> -43564
00> -32204
01> -43585
00> -32220
01> -43591
00> -32183
01> -43576
00> -32146
01> -43565
00> -32161
01> -43572
00> -32213
01> -43594
00> -32224
01> -43600
00> -32180
01> -43582
00> -32140
01> -43562
00> -32165
01> -43573
00> -32221
01> -43599
00> -32239
01> -43609
00> -32186
01> -43592
00> -32134
01> -43577
00> -32147
01> -43591
00> -32204
01> -43627
00> -32231
01> -43644
00> -32192
01> -43629
00> -32145
01> -43611
00> -32167
01> -43627
00> -32227
01> -43652
00> -32242
01> -43653
00> -32189
01> -43637
00> -32134
01> -43622
00> -32158
01> -43635
00> -32216
01> -43659
00> -32222
01> -43663
00> -32166
01> -43637
00> -32105
01> -43602
00> -32117
01> -43607
00> -32169
01> -43634
00> -32183
01> -43641
00> -32136
01> -43619
00> -32085
01> -43596
00> -32108
01> -43606
00> -32165
01> -43635
00> -32182
01> -43641
00> -32138
01> -43619
00> -32084
01> -43599
00> -32094
01> -43606
00> -32143
01> -43636
00> -32150
01> -43641
00> -32104
01> -43621
00> -32066
01> -43606
00> -32087
01> -43619
00> -32142
01> -43648
00> -32157
01> -43655
00> -32120
01> -43638
00> -32072
01> -43621
00> -32091
01> -43636
00> -32144
01> -43660
00> -32157
01> -43664
00> -32111
01> -43647
00> -32064
01> -43623
00> -32081
01> -43634
00> -32135
01> -43658
00> -32156
01> -43667
00> -32106
01> -43643
00> -32046
01> -43612
00> -32057
01> -43619
00> -32112
01> -43641
00> -32133
01> -43648
00> -32091
01> -43621
00> -32035
01> -43599
00> -32055
01> -43613
00> -32122
01> -43646
00> -32151
01> -43664
00> -32109
01> -43647
00> -32064
01> -43629
00> -32080
01> -43639
00> -32135
01> -43661
00> -32159
01> -43669
00> -32115
01> -43647
00> -32068
01> -43621
00> -32081
01> -43634
00> -32140
01> -43669
00> -32159
01> -43674
00> -32114
01> -43652
00> -32060
01> -43622
00> -32067
01> -43619
00> -32122
01> -43640
00> -32142
01> -43648
00> -32094
01> -43626
00> -32039
01> -43592
00> -32050
01> -43591
00> -32102
01> -43611
00> -32112
01> -43612
00> -32061
01> -43587
00> -32012
01> -43563
00> -32037
01> -43576
00> -32112
01> -43610
00> -32133
01> -43618
00> -32097
01> -43599
00> -32052
01> -43584
00> -32061
01> -43591
00> -32113
01> -43617
00> -32127
01> -43623
00> -32075
01> -43601
00> -32026
01> -43577
00> -32047
01> -43587
00> -32099
01> -43616
00> -32124
01> -43622
00> -32083
01> -43592
00> -32032
01> -43564
00> -32032
01> -43556
00> -32075
01> -43566
00> -32087
01> -43563
00> -32047
01> -43539
00> -32000
01> -43514
00> -32014
01> -43513
00> -32067
01> -43537
00> -32075
01> -43536
00> -32021
01> -43510
00> -31963
01> -43486
00> -31976
01> -43491
00> -32039
01> -43522
00> -32067
01> -43537
00> -32028
01> -43520
00> -31984
01> -43495
00> -32001
01> -43507
00> -32056
01> -43536
00> -32076
01> -43546
00> -32030
01> -43522
00> -31986
01> -43506
00> -31997
01> -43520
00> -32047
01> -43547
00> -32067
01> -43560
00> -32025
01> -43540
00> -31981
01> -43515
00> -32002
01> -43520
00> -32056
01> -43546
00> -32069
01> -43555
00> -32023
01> -43535
00> -31974
01> -43505
00> -31989
01> -43507
00> -32047
01> -43534
00> -32065
01> -43539
00> -32025
01> -43520
00> -31971
01> -43493
00> -31982
01> -43492
00> -32037
01> -43517
00> -32056
01> -43531
00> -32015
01> -43517
00> -31967
01> -43496
00> -31977
01> -43505
00> -32043
01> -43537
00> -32074
01> -43553
00> -32027
01> -43532
00> -31969
01> -43507
00> -31990
01> -43515
00> -32054
01> -43546
00> -32078
01> -43560
00> -32036
01> -43550
00> -31987
01> -43527
00> -32006
01> -43535
00> -32066
01> -43562
00> -32088
01> -43572
00> -32055
01> -43561
00> -32007
01> -43535
00> -32029
01> -43542
00> -32084
01> -43564
00> -32109
01> -43572
00> -32072
01> -43555
00> -32032
01> -43538
00> -32050
01> -43547
00> -32099
01> -43566
00> -32122
01> -43570
00> -32092
01> -43546
00> -32049
01> -43525
00> -32069
01> -43536
00> -32125
01> -43566
00> -32146
01> -43579
00> -32097
01> -43558
00> -32051
01> -43543
00> -32070
01> -43552
00> -32133
01> -43583
00> -32162
01> -43596
00> -32126
01> -43577
00> -32081
01> -43554
00> -32092
01> -43562
00> -32146
01> -43586
00> -32171
01> -43597
00> -32122
01> -43577
00> -32073
01> -43554
00> -32104
01> -43569
00> -32164
01> -43592
00> -32176
01> -43597
00> -32129
01> -43576
00> -32080
01> -43554
00> -32096
01> -43558
00> -32160
01> -43581
00> -32187
01> -43591
00> -32146
01> -43572
00> -32091
01> -43546
00> -32101
01> -43554
00> -32149
01> -43591
00> -32178
01> -43610
00> -32146
01> -43594
00> -32101
01> -43579
00> -32117
01> -43597
00> -32177
01> -43626
00> -32202
01> -43629
00> -32160
01> -43609
00> -32109
01> -43589
00> -32122
01> -43601
00> -32172
01> -43629
00> -32179
01> -43637
00> -32129
01> -43613
00> -32080
01> -43588
00> -32096
01> -43597
00> -32148
01> -43615
00> -32174
01> -43618
00> -32144
01> -43596
00> -32098
01> -43571
00> -32104
01> -43574
00> -32160
01> -43596
00> -32194
01> -43603
00> -32164
01> -43580
00> -32106
01> -43551
00> -32099
01> -43549
00> -32150
01> -43575
00> -32181
01> -43592
00> -32151
01> -43581
00> -32109
01> -43570
00> -32126
01> -43584
00> -32186
01> -43619
00> -32203
01> -43636
00> -32154
01> -43619
00> -32094
01> -43597
00> -32101
01> -43607
00> -32170
01> -43636
00> -32210
01> -43651
00> -32171
01> -43629
00> -32118
01> -43598
00> -32130
01> -43599
00> -32183
01> -43622
00> -32200
01> -43631
00> -32159
01> -43608
00> -32111
01> -43586
00> -32117
01> -43586
00> -32173
01> -43606
00> -32197
01> -43607
00> -32154
01> -43584
00> -32097
01> -43556
00> -32106
01> -43563
00> -32163
01> -43581
00> -32187
01> -43593
00> -32141
01> -43578
00> -32091
01> -43552
00> -32101
01> -43565
00> -32159
01> -43599
00> -32185
01> -43614
00> -32139
01> -43592
00> -32087
01> -43579
00> -32104
01> -43594
00> -32172
01> -43621
00> -32202
01> -43639
00> -32161
01> -43621
00> -32096
01> -43594
00> -32101
01> -43592
00> -32163
01> -43619
00> -32192
01> -43632
00> -32150
01> -43614
00> -32092
01> -43592
00> -32097
01> -43602
00> -32154
01> -43633
00> -32179
01> -43641
00> -32129
01> -43612
00> -32061
01> -43579
00> -32070
01> -43586
00> -32132
01> -43616
00> -32162
01> -43627
00> -32130
01> -43604
00> -32087
01> -43587
00> -32102
01> -43606
00> -32157
01> -43636
00> -32172
01> -43644
00> -32129
01> -43627
00> -32084
01> -43611
00> -32098
01> -43624
00> -32145
01> -43649
00> -32160
01> -43662
00> -32120
01> -43649
00> -32075
01> -43629
00> -32091
01> -43640
00> -32146
01> -43665
00> -32164
01> -43674
00> -32123
01> -43655
00> -32072
01> -43632
00> -32097
01> -43642
00> -32159
01> -43672
00> -32179
01> -43685
00> -32142
01> -43667
00> -32089
01> -43646
00> -32095
01> -43653
00> -32149
01> -43668
00> -32177
01> -43679
00> -32137
01> -43662
00> -32088
01> -43636
00> -32103
01> -43646
00> -32159
01> -43671
00> -32174
01> -43687
00> -32137
01> -43677
00> -32086
01> -43657
00> -32088
01> -43663
00> -32137
01> -43688
00> -32162
01> -43703
00> -32134
01> -43694
00> -32089
01> -43669
00> -32094
01> -43669
00> -32146
01> -43697
00> -32176
01> -43712
00> -32141
01> -43697
00> -32091
01> -43674
00> -32093
01> -43677
00> -32143
01> -43704
00> -32169
01> -43707
00> -32131
01> -43685
00> -32077
01> -43662
00> -32085
01> -43672
00> -32139
01> -43696
00> -32164
01> -43706
00> -32127
01> -43687
00> -32074
01> -43663
00> -32081
01> -43671
00> -32133
01> -43694
00> -32164
01> -43705
00> -32129
01> -43699
00> -32074
01> -43678
00> -32084
01> -43692
00> -32149
01> -43729
00> -32187
01> -43744
00> -32144
01> -43723
00> -32079
01> -43692
00> -32083
01> -43699
00> -32143
01> -43725
00> -32169
01> -43734
00> -32129
01> -43722
00> -32081
01> -43704
00> -32088
01> -43706
00> -32135
01> -43726
00> -32161
01> -43732
00> -32123
01> -43709
00> -32066
01> -43680
00> -32070
01> -43681
00> -32122
01> -43704
00> -32145
01> -43717
00> -32109
01> -43699
00> -32064
01> -43677
00> -32073
01> -43683
00> -32126
01> -43710
00> -32156
01> -43722
00> -32112
01> -43704
00> -32052
01> -43674
00> -32059
01> -43677
00> -32119
01> -43706
00> -32157
01> -43721
00> -32128
01> -43702
00> -32068
01> -43679
00> -32067
01> -43681
00> -32116
01> -43705
00> -32134
01> -43713
00> -32088
01> -43689
00> -32034
01> -43662
00> -32046
01> -43662
00> -32094
01> -43677
00> -32115
01> -43686
00> -32075
01> -43669
00> -32022
01> -43647
00> -32036
01> -43651
00> -32090
01> -43669
00> -32124
01> -43677
00> -32094
01> -43664
00> -32041
01> -43636
00> -32051
01> -43641
00> -32101
01> -43661
00> -32131
01> -43679
00> -32093
01> -43664
00> -32030
01> -43632
00> -32034
01> -43635
00> -32096
01> -43663
00> -32137
01> -43679
00> -32109
01> -43664
00> -32056
01> -43642
00> -32064
01> -43649
00> -32115
01> -43671
00> -32138
01> -43679
00> -32094
01> -43660
00> -32037
01> -43633
00> -32039
01> -43637
00> -32099
01> -43659
00> -32129
01> -43669
00> -32097
01> -43649
00> -32045
01> -43622
00> -32043
01> -43623
00> -32082
01> -43635
00> -32109
01> -43642
00> -32072
01> -43621
00> -32020
01> -43587
00> -32019
01> -43593
00> -32066
01> -43619
00> -32107
01> -43636
00> -32083
01> -43625
00> -32036
01> -43603
00> -32047
01> -43609
00> -32112
01> -43643
00> -32149
01> -43663
00> -32101
01> -43641
00> -32034
01> -43606
00> -32028
01> -43604
00> -32081
01> -43623
00> -32120
01> -43634
00> -32096
01> -43623
00> -32049
01> -43605
00> -32048
01> -43597
00> -32094
01> -43612
00> -32119
01> -43622
00> -32077
01> -43601
00> -32016
01> -43574
00> -32025
01> -43577
00> -32084
01> -43606
00> -32118
01> -43618
00> -32090
01> -43601
00> -32035
01> -43572
00> -32034
01> -43574
00> -32079
01> -43594
00> -32112
01> -43609
00> -32082
01> -43598
00> -32034
01> -43574
00> -32037
01> -43576
00> -32092
01> -43600
00> -32124
01> -43617
00> -32081
01> -43602
00> -32024
01> -43576
00> -32024
01> -43582
00> -32081
01> -43608
00> -32121
01> -43626
00> -32091
01> -43616
00> -32034
01> -43596
00> -32027
01> -43597
00> -32072
01> -43616
00> -32110
01> -43631
00> -32087
01> -43616
00> -32040
01> -43587
00> -32047
01> -43587
00> -32095
01> -43606
00> -32115
01> -43612
00> -32065
01> -43595
00> -31999
01> -43567
00> -32001
01> -43565
00> -32060
01> -43593
00> -32091
01> -43607
00> -32056
01> -43588
00> -32006
01> -43561
00> -32000
01> -43552
00> -32040
01> -43569
00> -32074
01> -43590
00> -32057
01> -43576
00> -32018
01> -43552
00> -32025
01> -43554
00> -32067
01> -43577
00> -32079
01> -43584
00> -32044
01> -43560
00> -32001
01> -43537
00> -32012
01> -43542
00> -32074
01> -43567
00> -32109
01> -43586
00> -32070
01> -43567
00> -32004
01> -43536
00> -31994
01> -43531
00> -32045
01> -43555
00> -32085
01> -43579
00> -32062
01> -43570
00> -32016
01> -43549
00> -32013
01> -43547
00> -32066
01> -43571
00> -32102
01> -43588
00> -32073
01> -43581
00> -32011
01> -43559
00> -32000
01> -43559
00> -32056
01> -43584
00> -32097
01> -43601
00> -32069
01> -43591
00> -32023
01> -43577
00> -32035
01> -43589
00> -32088
01> -43612
00> -32115
01> -43624
00> -32075
01> -43601
00> -32014
01> -43570
00> -32019
01> -43568
00> -32074
01> -43592
00> -32099
01> -43599
00> -32069
01> -43581
00> -32023
01> -43556
00> -32024
01> -43559
00> -32064
01> -43584
00> -32098
01> -43602
00> -32075
01> -43590
00> -32015
01> -43551
00> -32003
01> -43532
00> -32043
01> -43544
00> -32081
01> -43567
00> -32059
01> -43561
00> -32008
01> -43540
00> -32015
01> -43542
00> -32070
01> -43569
00> -32106
01> -43590
00> -32077
01> -43577
00> -32012
01> -43554
00> -32009
01> -43557
00> -32067
01> -43584
00> -32107
01> -43607
00> -32084
01> -43611
00> -32039
01> -43592
00> -32046
01> -43595
00> -32094
01> -43620
00> -32120
01> -43632
00> -32084
01> -43618
00> -32030
01> -43594
00> -32034
01> -43598
00> -32082
01> -43617
00> -32115
01> -43621
00> -32087
01> -43604
00> -32039
01> -43581
00> -32039
01> -43578
00> -32086
01> -43600
00> -32119
01> -43612
00> -32091
01> -43592
00> -32036
01> -43558
00> -32030
01> -43554
00> -32073
01> -43572
00> -32106
01> -43582
00> -32080
01> -43570
00> -32030
01> -43553
00> -32026
01> -43560
00> -32073
01> -43587
00> -32109
01> -43597
00> -32076
01> -43584
00> -32029
01> -43568
00> -32030
01> -43577
00> -32082
01> -43606
00> -32119
01> -43629
00> -32084
01> -43623
00> -32027
01> -43602
00> -32027
01> -43613
00> -32091
01> -43642
00> -32137
01> -43662
00> -32107
01> -43644
00> -32048
01> -43615
00> -32046
01> -43619
00> -32096
01> -43642
00> -32133
01> -43655
00> -32099
01> -43640
00> -32031
01> -43612
00> -32016
01> -43600
00> -32066
01> -43621
00> -32114
01> -43637
00> -32096
01> -43620
00> -32044
01> -43599
00> -32046
01> -43599
00> -32093
01> -43623
00> -32130
01> -43644
00> -32094
01> -43627
00> -32031
01> -43594
00> -32027
01> -43591
00> -32088
01> -43617
00> -32132
01> -43640
00> -32106
01> -43631
00> -32051
01> -43612
00> -32046
01> -43606
00> -32095
01> -43628
00> -32131
01> -43648
00> -32112
01> -43643
00> -32070
01> -43623
00> -32071
01> -43616
00> -32120
01> -43637
00> -32163
01> -43655
00> -32136
01> -43643
00> -32077
01> -43620
00> -32069
01> -43613
00> -32114
01> -43636
00> -32154
01> -43662
00> -32126
01> -43659
00> -32066
01> -43632
00> -32054
01> -43624
00> -32102
01> -43651
00> -32142
01> -43674
00> -32118
01> -43666
00> -32062
01> -43645
00> -32057
01> -43639
00> -32116
01> -43666
00> -32164
01> -43691
00> -32136
01> -43682
00> -32072
01> -43652
00> -32062
01> -43645
00> -32108
01> -43664
00> -32155
01> -43684
00> -32137
01> -43674
00> -32087
01> -43653
00> -32084
01> -43646
00> -32134
01> -43669
00> -32174
01> -43688
00> -32142
01> -43678
00> -32077
01> -43649
00> -32066
01> -43648
00> -32112
01> -43672
00> -32156
01> -43687
00> -32129
01> -43670
00> -32071
01> -43646
00> -32056
01> -43647
00> -32109
01> -43679
00> -32157
01> -43707
00> -32142
01> -43704
00> -32084
01> -43684
00> -32071
01> -43684
00> -32125
01> -43708
00> -32175
01> -43732
00> -32153
01> -43729
00> -32094
01> -43709
00> -32074
01> -43710
00> -32109
01> -43731
00> -32143
01> -43744
00> -32127
01> -43734
00> -32075
01> -43707
00> -32079
01> -43714
00> -32133
01> -43742
00> -32160
01> -43757
00> -32119
01> -43736
00> -32060
01> -43706
00> -32047
01> -43694
00> -32097
01> -43710
00> -32145
01> -43735
00> -32129
01> -43738
00> -32061
01> -43712
00> -32032
01> -43702
00> -32073
01> -43714
00> -32112
01> -43728
00> -32082
01> -43719
00> -32024
01> -43699
00> -32017
01> -43708
00> -32059
01> -43737
00> -32101
01> -43759
00> -32070
01> -43747
00> -32010
01> -43717
00> -32006
01> -43722
00> -32063
01> -43752
00> -32106
01> -43769
00> -32068
01> -43752
00> -32014
01> -43733
00> -32007
01> -43737
00> -32055
01> -43761
00> -32087
01> -43772
00> -32058
01> -43758
00> -31994
01> -43732
00> -31987
01> -43735
00> -32037
01> -43756
00> -32074
01> -43778
00> -32042
01> -43763
00> -31978
01> -43735
00> -31972
01> -43742
00> -32021
01> -43771
00> -32067
01> -43794
00> -32043
01> -43790
00> -31981
01> -43765
00> -31969
01> -43760
00> -32023
01> -43783
00> -32061
01> -43807
00> -32029
01> -43796
00> -31966
01> -43761
00> -31960
01> -43759
00> -32016
01> -43786
00> -32055
01> -43810
00> -32027
01> -43800
00> -31974
01> -43771
00> -31976
01> -43768
00> -32031
01> -43787
00> -32069
01> -43801
00> -32039
01> -43788
00> -31981
01> -43760
00> -31976
01> -43759
00> -32019
01> -43780
00> -32053
01> -43796
00> -32026
01> -43777
00> -31978
01> -43754
00> -31974
01> -43752
00> -32020
01> -43776
00> -32051
01> -43796
00> -32021
01> -43782
00> -31962
01> -43761
00> -31948
01> -43756
00> -32007
01> -43780
00> -32066
01> -43808
00> -32048
01> -43806
00> -31993
01> -43780
00> -31980
01> -43774
00> -32013
01> -43792
00> -32045
01> -43807
00> -32020
01> -43794
00> -31967
01> -43767
00> -31960
01> -43767
00> -32003
01> -43781
00> -32045
01> -43791
00> -32019
01> -43775
00> -31961
01> -43743
00> -31939
01> -43740
00> -31982
01> -43758
00> -32031
01> -43780
00> -32022
01> -43769
00> -31969
01> -43745
00> -31947
01> -43737
00> -31982
01> -43752
00> -32012
01> -43767
00> -31984
01> -43753
00> -31933
01> -43732
00> -31929
01> -43744
00> -31977
01> -43776
00> -32019
01> -43799
00> -32006
01> -43794
00> -31964
01> -43768
00> -31947
01> -43764
00> -31984
01> -43780
00> -32031
01> -43799
00> -32016
01> -43790
00> -31962
01> -43761
00> -31952
01> -43760
00> -32000
01> -43782
00> -32037
01> -43798
00> -32010
01> -43776
00> -31955
01> -43739
00> -31951
01> -43735
00> -32004
01> -43749
00> -32039
01> -43759
00> -32019
01> -43746
00> -31957
01> -43712
00> -31944
01> -43699
00> -31989
01> -43717
00> -32033
01> -43738
00> -32007
01> -43722
00> -31956
01> -43696
00> -31949
01> -43699
00> -31993
01> -43726
00> -32036
01> -43752
00> -32024
01> -43751
00> -31979
01> -43729
00> -31971
01> -43728
00> -32011
01> -43749
00> -32054
01> -43774
00> -32042
01> -43769
00> -31999
01> -43746
00> -31994
01> -43742
00> -32042
01> -43767
00> -32081
01> -43784
00> -32048
01> -43774
00> -31984
01> -43752
00> -31961
01> -43740
00> -32004
01> -43753
00> -32059
01> -43777
00> -32046
01> -43771
00> -32001
01> -43741
00> -31996
01> -43744
00> -32040
01> -43764
00> -32076
01> -43782
00> -32058
01> -43775
00> -32014
01> -43751
00> -32019
01> -43752
00> -32072
01> -43780
00> -32116
01> -43808
00> -32089
01> -43802
00> -32027
01> -43781
00> -32013
01> -43774
00> -32064
01> -43800
00> -32107
01> -43830
00> -32082
01> -43831
00> -32023
01> -43812
00> -32011
01> -43807
00> -32062
01> -43833
00> -32114
01> -43855
00> -32104
01> -43849
00> -32043
01> -43822
00> -32015
01> -43810
00> -32051
01> -43827
00> -32101
01> -43848
00> -32086
01> -43842
00> -32039
01> -43829
00> -32031
01> -43824
00> -32074
01> -43836
00> -32111
01> -43850
00> -32092
01> -43846
00> -32039
01> -43829
00> -32023
01> -43827
00> -32069
01> -43859
00> -32112
01> -43891
00> -32091
01> -43885
00> -32039
01> -43868
00> -32031
01> -43873
00> -32081
01> -43897
00> -32131
01> -43925
00> -32109
01> -43921
00> -32046
01> -43896
00> -32031
01> -43892
00> -32086
01> -43915
00> -32140
01> -43937
00> -32121
01> -43936
00> -32064
01> -43912
00> -32051
01> -43902
00> -32092
01> -43921
00> -32132
01> -43937
00> -32114
01> -43924
00> -32056
01> -43897
00> -32039
01> -43886
00> -32091
01> -43912
00> -32141
01> -43930
00> -32125
01> -43917
00> -32072
01> -43890
00> -32057
01> -43887
00> -32100
01> -43916
00> -32142
01> -43945
00> -32118
01> -43939
00> -32067
01> -43914
00> -32056
01> -43912
00> -32097
01> -43927
00> -32136
01> -43949
00> -32122
01> -43940
00> -32067
01> -43915
00> -32047
01> -43915
00> -32093
01> -43943
00> -32147
01> -43967
00> -32134
01> -43958
00> -32078
01> -43937
00> -32067
01> -43937
00> -32111
01> -43953
00> -32147
01> -43964
00> -32136
01> -43958
00> -32087
01> -43933
00> -32062
01> -43919
00> -32101
01> -43932
00> -32145
01> -43946
00> -32127
01> -43937
00> -32071
01> -43917
00> -32058
01> -43911
00> -32101
01> -43929
00> -32154
01> -43954
00> -32138
01> -43952
00> -32081
01> -43928
00> -32071
01> -43925
00> -32117
01> -43948
00> -32162
01> -43974
00> -32140
01> -43969
00> -32086
01> -43947
00> -32070
01> -43938
00> -32105
01> -43945
00> -32142
01> -43964
00> -32122
01> -43954
00> -32071
01> -43931
00> -32057
01> -43926
00> -32099
01> -43939
00> -32144
01> -43956
00> -32132
01> -43944
00> -32087
01> -43924
00> -32073
01> -43916
00> -32113
01> -43926
00> -32158
01> -43944
00> -32136
01> -43935
00> -32081
01> -43904
00> -32066
01> -43897
00> -32112
01> -43919
00> -32158
01> -43937
00> -32140
01> -43926
00> -32082
01> -43907
00> -32075
01> -43908
00> -32132
01> -43934
00> -32180
01> -43959
00> -32156
01> -43962
00> -32101
01> -43936
00> -32084
01> -43932
00> -32121
01> -43950
00> -32161
01> -43969
00> -32151
01> -43964
00> -32094
01> -43936
00> -32067
01> -43921
00> -32108
01> -43933
00> -32162
01> -43952
00> -32159
01> -43942
00> -32109
01> -43912
00> -32085
01> -43892
00> -32109
01> -43897
00> -32149
01> -43912
00> -32124
01> -43897
00> -32062
01> -43858
00> -32056
01> -43841
00> -32102
01> -43854
00> -32142
01> -43867
00> -32123
01> -43852
00> -32067
01> -43824
00> -32044
01> -43812
00> -32066
01> -43821
00> -32100
01> -43840
00> -32083
01> -43831
00> -32032
01> -43799
00> -32021
01> -43788
00> -32057
01> -43798
00> -32102
01> -43817
00> -32081
01> -43811
00> -32020
01> -43790
00> -31994
01> -43784
00> -32026
01> -43808
00> -32066
01> -43836
00> -32051
01> -43838
00> -31996
01> -43819
00> -31977
01> -43820
00> -32024
01> -43846
00> -32075
01> -43876
00> -32059
01> -43879
00> -32005
01> -43861
00> -31979
01> -43852
00> -32019
01> -43871
00> -32073
01> -43900
00> -32056
01> -43896
00> -31992
01> -43869
00> -31978
01> -43866
00> -32022
01> -43892
00> -32070
01> -43915
00> -32054
01> -43911
00> -32006
01> -43886
00> -31994
01> -43886
00> -32044
01> -43913
00> -32094
01> -43937
00> -32073
01> -43927
00> -32010
01> -43897
00> -31987
01> -43886
00> -32024
01> -43901
00> -32071
01> -43932
00> -32059
01> -43924
00> -32011
01> -43901
00> -31999
01> -43894
00> -32044
01> -43906
00> -32086
01> -43925
00> -32060
01> -43917
00> -31998
01> -43890
00> -31982
01> -43882
00> -32032
01> -43904
00> -32083
01> -43926
00> -32069
01> -43924
00> -32017
01> -43907
00> -32002
01> -43903
00> -32046
01> -43927
00> -32099
01> -43956
00> -32092
01> -43952
00> -32037
01> -43926
00> -32013
01> -43921
00> -32046
01> -43951
00> -32094
01> -43977
00> -32083
01> -43969
00> -32041
01> -43947
00> -32022
01> -43937
00> -32054
01> -43951
00> -32104
01> -43969
00> -32094
01> -43959
00> -32041
01> -43941
00> -32024
01> -43936
00> -32057
01> -43951
00> -32087
01> -43964
00> -32070
01> -43956
00> -32022
01> -43932
00> -32011
01> -43926
00> -32052
01> -43939
00> -32101
01> -43952
00> -32097
01> -43946
00> -32051
01> -43927
00> -32024
01> -43926
00> -32061
01> -43949
00> -32112
01> -43976
00> -32097
01> -43971
00> -32036
01> -43949
00> -32007
01> -43945
00> -32051
01> -43961
00> -32106
01> -43981
00> -32099
01> -43974
00> -32044
01> -43953
00> -32024
01> -43947
00> -32062
01> -43960
00> -32114
01> -43978
00> -32099
01> -43968
00> -32039
01> -43940
00> -32024
01> -43924
00> -32056
01> -43928
00> -32104
01> -43946
00> -32093
01> -43937
00> -32039

00> -32018
01> -43891
00> -32045
01> -43895
00> -32078
01> -43899
00> -32057
01> -43881
00> -31994
01> -43848
00> -31975
01> -43829
00> -32019
01> -43836
00> -32064
01> -43855
00> -32046
01> -43840
00> -31989
01> -43806
00> -31971
01> -43789
00> -32014
01> -43802
00> -32056
01> -43813
00> -32044
01> -43802
00> -31990
01> -43771
00> -31968
01> -43756
00> -32002
01> -43772
00> -32049
01> -43799
00> -32039
01> -43791
00> -31990
01> -43766
00> -31979
01> -43756
00> -32021
01> -43773
00> -32065
01> -43803
00> -32047
01> -43804
00> -31987
01> -43786
00> -31972
01> -43781
00> -32015
01> -43806
00> -32069
01> -43833
00> -32062
01> -43832
00> -32017
01> -43816
00> -32008
01> -43816
00> -32064
01> -43844
00> -32122
01> -43875
00> -32117
01> -43876
00> -32071
01> -43855
00> -32047
01> -43849
00> -32077
01> -43869
00> -32116
01> -43889
00> -32101
01> -43884
00> -32044
01> -43858
00> -32027
01> -43851
00> -32071
01> -43876
00> -32120
01> -43897
00> -32112
01> -43888
00> -32060
01> -43864
00> -32039
01> -43852
00> -32067
01> -43867
00> -32102
01> -43885
00> -32097
01> -43882
00> -32059
01> -43860
00> -32049
01> -43854
00> -32090
01> -43874
00> -32134
01> -43889
00> -32121
01> -43885
00> -32066
01> -43859
00> -32034
01> -43846
00> -32069
01> -43867
00> -32114
01> -43886
00> -32114
01> -43885
00> -32066
01> -43865
00> -32039
01> -43860
00> -32067
01> -43873
00> -32109
01> -43885
00> -32096
01> -43875
00> -32041
01> -43847
00> -32017
01> -43837
00> -32049
01> -43854
00> -32094
01> -43873
00> -32082
01> -43869
00> -32026
01> -43842
00> -32001
01> -43833
00> -32046
01> -43858
00> -32096
01> -43883
00> -32090
01> -43876
00> -32034
01> -43852
00> -32008
01> -43844
00> -32042
01> -43859
00> -32084
01> -43876
00> -32069
01> -43874
00> -32025
01> -43848
00> -31998
01> -43835
00> -32034
01> -43851
00> -32081
01> -43871
00> -32069
01> -43866
00> -32019
01> -43847
00> -31998
01> -43842
00> -32035
01> -43861
00> -32085
01> -43882
00> -32082
01> -43886
00> -32029
01> -43866
00> -31999
01> -43856
00> -32028
01> -43874
00> -32077
01> -43899
00> -32072
01> -43894
00> -32028
01> -43872
00> -32008
01> -43862
00> -32041
01> -43876
00> -32086
01> -43898
00> -32075
01> -43891
00> -32019
01> -43864
00> -31987
01> -43848
00> -32011
01> -43853
00> -32053
01> -43866
00> -32053
01> -43857
00> -32001
01> -43836
00> -31980
01> -43831
00> -32021
01> -43843
00> -32071
01> -43862
00> -32067
01> -43861
00> -32020
01> -43837
00> -31992
01> -43821
00> -32031
01> -43837
00> -32079
01> -43864
00> -32074
01> -43863
00> -32026
01> -43840
00> -32002
01> -43829
00> -32041
01> -43843
00> -32086
01> -43867
00> -32071
01> -43862
00> -32013
01> -43839
00> -31985
01> -43826
00> -32025
01> -43842
00> -32085
01> -43871
00> -32079
01> -43865
00> -32024
01> -43832
00> -31985
01> -43814
00> -32001
01> -43808
00> -32046
01> -43817
00> -32047
01> -43814
00> -31992
01> -43777
00> -31957
01> -43747
00> -31987
01> -43742
00> -32035
01> -43752
00> -32028
01> -43732
00> -31977
01> -43697
00> -31946
01> -43677
00> -31971
01> -43685
00> -32019
01> -43697
00> -32011
01> -43683
00> -31966
01> -43657
00> -31938
01> -43645
00> -31973
01> -43662
00> -32023
01> -43696
00> -32016
01> -43701
00> -31958
01> -43681
00> -31918
01> -43662
00> -31944
01> -43675
00> -31996
01> -43697
00> -32002
01> -43697
00> -31964
01> -43669
00> -31941
01> -43651
00> -31968
01> -43658
00> -32007
01> -43671
00> -32004
01> -43673
00> -31957
01> -43653
00> -31928
01> -43641
00> -31963
01> -43662
00> -32011
01> -43689
00> -32009
01> -43692
00> -31967
01> -43671
00> -31947
01> -43662
00> -31972
01> -43681
00> -32014
01> -43716
00> -32009
01> -43727
00> -31964
01> -43710
00> -31957
01> -43704
00> -31997
01> -43723
00> -32035
01> -43749
00> -32027
01> -43754
00> -31983
01> -43734
00> -31963
01> -43724
00> -31989
01> -43734
00> -32027
01> -43754
00> -32015
01> -43751
00> -31962
01> -43727
00> -31937
01> -43712
00> -31974
01> -43734
00> -32017
01> -43769
00> -32007
01> -43769
00> -31956
01> -43748
00> -31927
01> -43732
00> -31946
01> -43735
00> -31983
01> -43751
00> -31987
01> -43749
00> -31955
01> -43732
00> -31946
01> -43718
00> -31978
01> -43734
00> -32019
01> -43771
00> -32008
01> -43776
00> -31965
01> -43761
00> -31950
01> -43755
00> -31984
01> -43772
00> -32011
01> -43793
00> -31990
01> -43787
00> -31952
01> -43771
00> -31944
01> -43769
00> -31986
01> -43790
00> -32027
01> -43814
00> -32014
01> -43810
00> -31974
01> -43781
00> -31956
01> -43764
00> -31967
01> -43769
00> -31990
01> -43787
00> -31972
01> -43783
00> -31944
01> -43766
00> -31942
01> -43756
00> -31978
01> -43766
00> -32012
01> -43781
00> -31994
01> -43785
00> -31955
01> -43769
00> -31958
01> -43765
00> -31989
01> -43779
00> -32006
01> -43792
00> -31981
01> -43788
00> -31949
01> -43778
00> -31950
01> -43780
00> -31979
01> -43794
00> -31994
01> -43803
00> -31964
01> -43796
00> -31933
01> -43774
00> -31935
01> -43772
00> -31957
01> -43787
00> -31971
01> -43798
00> -31949
01> -43793
00> -31922
01> -43776
00> -31931
01> -43766
00> -31964
01> -43769
00> -31982
01> -43784
00> -31957
01> -43776
00> -31927
01> -43754
00> -31934
01> -43744
00> -31959
01> -43751
00> -31968
01> -43761
00> -31931
01> -43751
00> -31900
01> -43731
00> -31908
01> -43722
00> -31935
01> -43732
00> -31944
01> -43744
00> -31915
01> -43736
00> -31894
01> -43713
00> -31919
01> -43710
00> -31971
01> -43729
00> -31987
01> -43743
00> -31951
01> -43731
00> -31913
01> -43711
00> -31926
01> -43707
00> -31961
01> -43715
00> -31962
01> -43719
00> -31927
01> -43707
00> -31900
01> -43684
00> -31921
01> -43683
00> -31960
01> -43696
00> -31959
01> -43708
00> -31923
01> -43695
00> -31900
01> -43668
00> -31914
01> -43650
00> -31944
01> -43642
00> -31947
01> -43650
00> -31908
01> -43651
00> -31884
01> -43634
00> -31912
01> -43628
00> -31939
01> -43643
00> -31928
01> -43656
00> -31888
01> -43652
00> -31877
01> -43643
00> -31898
01> -43634
00> -31914
01> -43631
00> -31898
01> -43642
00> -31867
01> -43646
00> -31864
01> -43634
00> -31895
01> -43632
00> -31915
01> -43642
00> -31907
01> -43651
00> -31876
01> -43641
00> -31857
01> -43620
00> -31892
01> -43622
00> -31931
01> -43646
00> -31926
01> -43659
00> -31886
01> -43652
00> -31868
01> -43644
00> -31891
01> -43636
00> -31918
01> -43640
00> -31907
01> -43648
00> -31869
01> -43635
00> -31850
01> -43619
00> -31872
01> -43607
00> -31894
01> -43604
00> -31885
01> -43609
00> -31844
01> -43600
00> -31828
01> -43581
00> -31872
01> -43581
00> -31903
01> -43591
00> -31886
01> -43591
00> -31849
01> -43579
00> -31834
01> -43567
00> -31866
01> -43569
00> -31896
01> -43576
00> -31871
01> -43577
00> -31821
01> -43562
00> -31804
01> -43549
00> -31839
01> -43551
00> -31866
01> -43561
00> -31846
01> -43569
00> -31794
01> -43561
00> -31777
01> -43549
00> -31817
01> -43549
00> -31863
01> -43564
00> -31872
01> -43579
00> -31842
01> -43574
00> -31834
01> -43562
00> -31864
01> -43560
00> -31887
01> -43564
00> -31875
01> -43566
00> -31832
01> -43561
00> -31824
01> -43558
00> -31852
01> -43557
00> -31876
01> -43564
00> -31852
01> -43567
00> -31810
01> -43555
00> -31796
01> -43546
00> -31823
01> -43536
00> -31857
01> -43542
00> -31850
01> -43546
00> -31808
01> -43545
00> -31784
01> -43538
00> -31804
01> -43535
00> -31827
01> -43542
00> -31817
01> -43540
00> -31787
01> -43534
00> -31775
01> -43531
00> -31806
01> -43536
00> -31834
01> -43536
00> -31822
01> -43535
00> -31773
01> -43522
00> -31757
01> -43504
00> -31786
01> -43502
00> -31818
01> -43514
00> -31807
01> -43522
00> -31772
01> -43519
00> -31754
01> -43510
00> -31786
01> -43508
00> -31825
01> -43519
00> -31820
01> -43529
00> -31782
01> -43525
00> -31763
01> -43531
00> -31798
01> -43535
00> -31843
01> -43555
00> -31850
01> -43581
00> -31810
01> -43585
00> -31784
01> -43581
00> -31817
01> -43584
00> -31857
01> -43602
00> -31849
01> -43616
00> -31817
01> -43611
00> -31806
01> -43606
00> -31837
01> -43609
00> -31871
01> -43617
00> -31874
01> -43626
00> -31841
01> -43622
00> -31819
01> -43607
00> -31839
01> -43597
00> -31868
01> -43598
00> -31862
01> -43598
00> -31836
01> -43587
00> -31828
01> -43577
00> -31860
01> -43576
00> -31894
01> -43581
00> -31901
01> -43588
00> -31866
01> -43589
00> -31842
01> -43586
00> -31865
01> -43586
00> -31889
01> -43596
00> -31887
01> -43616
00> -31855
01> -43621
00> -31834
01> -43618
00> -31856
01> -43618
00> -31895
01> -43634
00> -31896
01> -43654
00> -31861
01> -43657
00> -31835
01> -43651
00> -31854
01> -43647
00> -31892
01> -43662
00> -31895
01> -43674
00> -31861
01> -43667
00> -31834
01> -43655
00> -31847
01> -43642
00> -31866
01> -43640
00> -31867
01> -43639
00> -31837
01> -43633
00> -31820
01> -43622
00> -31849
01> -43621
00> -31884
01> -43627
00> -31879
01> -43624
00> -31829
01> -43604
00> -31787
01> -43574
00> -31806
01> -43567
00> -31854
01> -43579
00> -31866
01> -43594
00> -31839
01> -43595
00> -31822
01> -43587
00> -31849
01> -43594
00> -31887
01> -43608
00> -31891
01> -43617
00> -31856
01> -43610
00> -31831
01> -43594
00> -31861
01> -43595
00> -31899
01> -43608
00> -31907
01> -43624
00> -31874
01> -43616
00> -31847
01> -43600
00> -31863
01> -43594
00> -31891
01> -43602
00> -31894
01> -43606
00> -31863
01> -43602
00> -31836
01> -43597
00> -31852
01> -43590
00> -31885
01> -43598
00> -31891
01> -43609
00> -31856
01> -43605
00> -31820
01> -43591
00> -31826
01> -43584
00> -31849
01> -43586
00> -31858
01> -43601
00> -31835
01> -43594
00> -31821
01> -43586
00> -31844
01> -43589
00> -31872
01> -43598
00> -31882
01> -43602
00> -31863
01> -43597
00> -31840
01> -43587
00> -31855
01> -43581
00> -31886
01> -43592
00> -31886
01> -43605
00> -31849
01> -43602
00> -31817
01> -43591
00> -31829
01> -43584
00> -31863
01> -43589
00> -31874
01> -43592
00> -31856
01> -43591
00> -31836
01> -43578
00> -31850
01> -43578
00> -31882
01> -43589
00> -31897
01> -43597
00> -31867
01> -43590
00> -31842
01> -43580
00> -31863
01> -43576
00> -31902
01> -43583
00> -31900
01> -43593
00> -31858
01> -43586
00> -31824
01> -43564
00> -31842
01> -43560
00> -31887
01> -43575
00> -31899
01> -43587
00> -31871
01> -43585
00> -31852
01> -43569
00> -31874
01> -43566
00> -31904
01> -43574
00> -31906
01> -43582
00> -31867
01> -43577
00> -31833
01> -43567
00> -31841
01> -43568
00> -31879
01> -43587
00> -31891
01> -43596
00> -31857
01> -43592
00> -31843
01> -43591
00> -31878
01> -43594
00> -31929
01> -43609
00> -31943
01> -43629
00> -31909
01> -43621
00> -31882
01> -43604
00> -31897
01> -43599
00> -31931
01> -43609
00> -31937
01> -43620
00> -31905
01> -43617
00> -31872
01> -43605
00> -31884
01> -43604
00> -31915
01> -43612
00> -31925
01> -43621
00> -31895
01> -43621
00> -31860
01> -43604
00> -31876
01> -43600
00> -31912
01> -43612
00> -31917
01> -43620
00> -31880
01> -43622
00> -31857
01> -43618
00> -31881
01> -43612
00> -31924
01> -43624
00> -31939
01> -43636
00> -31912
01> -43634
00> -31882
01> -43624
00> -31889
01> -43614
00> -31919
01> -43619
00> -31933
01> -43634
00> -31909
01> -43633
00> -31876
01> -43612
00> -31885
01> -43601
00> -31918
01> -43606
00> -31929
01> -43616
00> -31899
01> -43617
00> -31864
01> -43603
00> -31869
01> -43594
00> -31902
01> -43604
00> -31916
01> -43616
00> -31879
01> -43613
00> -31838
01> -43596
00> -31852
01> -43597
00> -31891
01> -43616
00> -31897
01> -43629
00> -31866
01> -43616
00> -31853
01> -43602
00> -31867
01> -43596
00> -31903
01> -43602
00> -31915
01> -43614
00> -31876
01> -43606
00> -31826
01> -43590
00> -31829
01> -43585
00> -31871
01> -43600
00> -31889
01> -43613
00> -31864
01> -43617
00> -31846
01> -43610
00> -31866
01> -43599
00> -31894
01> -43594
00> -31909
01> -43610
00> -31891
01> -43611
00> -31869
01> -43594
00> -31879
01> -43582
00> -31916
01> -43583
00> -31933
01> -43594
00> -31906
01> -43588
00> -31874
01> -43574
00> -31876
01> -43559
00> -31905
01> -43564
00> -31914
01> -43573
00> -31883
01> -43572
00> -31849
01> -43562
00> -31861
01> -43562
00> -31897
01> -43573
00> -31913
01> -43580
00> -31884
01> -43576
00> -31856
01> -43570
00> -31857
01> -43561
00> -31894
01> -43575
00> -31904
01> -43586
00> -31872
01> -43581
00> -31846
01> -43566
00> -31859
01> -43557
00> -31905
01> -43571
00> -31926
01> -43586
00> -31898
01> -43582
00> -31865
01> -43569
00> -31864
01> -43561
00> -31885
01> -43563
00> -31895
01> -43579
00> -31868
01> -43576
00> -31853
01> -43566
00> -31876
01> -43566
00> -31915
01> -43577
00> -31928
01> -43590
00> -31894
01> -43590
00> -31860
01> -43579
00> -31877
01> -43572
00> -31913
01> -43582
00> -31909
01> -43589
00> -31866
01> -43582
00> -31841
01> -43583
00> -31861
01> -43590
00> -31907
01> -43606
00> -31928
01> -43616
00> -31890
01> -43611
00> -31853
01> -43599
00> -31859
01> -43590
00> -31907
01> -43605
00> -31938
01> -43629
00> -31927
01> -43633
00> -31899
01> -43618
00> -31900
01> -43604
00> -31926
01> -43613
00> -31939
01> -43621
00> -31919
01> -43627
00> -31889
01> -43622
00> -31887
01> -43614
00> -31922
01> -43620
00> -31947
01> -43631
00> -31930
01> -43631
00> -31898
01> -43622
00> -31910
01> -43622
00> -31951
01> -43635
00> -31970
01> -43647
00> -31950
01> -43650
00> -31927
01> -43647
00> -31932
01> -43637
00> -31957
01> -43644
00> -31969
01> -43657
00> -31946
01> -43662
00> -31922
01> -43653
00> -31939
01> -43654
00> -31982
01> -43664
00> -31994
01> -43666
00> -31964
01> -43667
00> -31929
01> -43652
00> -31934
01> -43644
00> -31966
01> -43653
00> -31970
01> -43659
00> -31934
01> -43655
00> -31906
01> -43645
00> -31919
01> -43644
00> -31962
01> -43656
00> -31977
01> -43664
00> -31942
01> -43661
00> -31908
01> -43649
00> -31909
01> -43642
00> -31952
01> -43656
00> -31981
01> -43676
00> -31959
01> -43676
00> -31922
01> -43659
00> -31915
01> -43649
00> -31944
01> -43664
00> -31969
01> -43681
00> -31943
01> -43683
00> -31907
01> -43671
00> -31903
01> -43666
00> -31942
01> -43681
00> -31971
01> -43707
00> -31956
01> -43712
00> -31925
01> -43700
00> -31923
01> -43689
00> -31958
01> -43696
00> -31966
01> -43704
00> -31932
01> -43701
00> -31901
01> -43694
00> -31920
01> -43691
00> -31972
01> -43702
00> -31999
01> -43714
00> -31975
01> -43710
00> -31942
01> -43698
00> -31941
01> -43689
00> -31969
01> -43694
00> -31979
01> -43708
00> -31946
01> -43705
00> -31906
01> -43691
00> -31907
01> -43688
00> -31942
01> -43697
00> -31960
01> -43713
00> -31935
01> -43714
00> -31908
01> -43707
00> -31919
01> -43695
00> -31957
01> -43706
00> -31976
01> -43728
00> -31951
01> -43730
00> -31915
01> -43718
00> -31921
01> -43717
00> -31959
01> -43729
00> -31979
01> -43746
00> -31958
01> -43747
00> -31916
01> -43733
00> -31916
01> -43719
00> -31954
01> -43729
00> -31976
01> -43746
00> -31949
01> -43744
00> -31909
01> -43737
00> -31917
01> -43731
00> -31952
01> -43734
00> -31971
01> -43752
00> -31944
01> -43755
00> -31911
01> -43753
00> -31917
01> -43744
00> -31952
01> -43755
00> -31966
01> -43767
00> -31938
01> -43768
00> -31919
01> -43767
00> -31937
01> -43772
00> -31987
01> -43795
00> -32012
01> -43813
00> -31978
01> -43812
00> -31940
01> -43804
00> -31952
01> -43797
00> -31996
01> -43806
00> -32026
01> -43817
00> -32005
01> -43815
00> -31964
01> -43802
00> -31959
01> -43786
00> -31996
01> -43787
00> -32016
01> -43797
00> -31986
01> -43792
00> -31941
01> -43774
00> -31935
01> -43767
00> -31976
01> -43769
00> -32001
01> -43771
00> -31979
01> -43767
00> -31948
01> -43757
00> -31949
01> -43746
00> -31983
01> -43745
00> -32005
01> -43760
00> -31980
01> -43757
00> -31948
01> -43755
00> -31954
01> -43752
00> -31989
01> -43759
00> -32022
01> -43781
00> -32009
01> -43790
00> -31972
01> -43784
00> -31966
01> -43776
00> -31997
01> -43784
00> -32016
01> -43805
00> -31991
01> -43814
00> -31951
01> -43804
00> -31954
01> -43802
00> -31998
01> -43815
00> -32021
01> -43827
00> -31997
01> -43827
00> -31972
01> -43822
00> -31978
01> -43822
00> -32011
01> -43830
00> -32032
01> -43834
00> -32014
01> -43822
00> -31981
01> -43808
00> -31979
01> -43804
00> -32009
01> -43805
00> -32025
01> -43811
00> -31999
01> -43808
00> -31965
01> -43799
00> -31966
01> -43797
00> -32000
01> -43814
00> -32017
01> -43832
00> -31992
01> -43831
00> -31966
01> -43822
00> -31976
01> -43821
00> -32011
01> -43836
00> -32038
01> -43860
00> -32016
01> -43861
00> -31987
01> -43846
00> -31992
01> -43836
00> -32023
01> -43837
00> -32041
01> -43837
00> -32021
01> -43842
00> -31992
01> -43842
00> -31988
01> -43836
00> -32016
01> -43845
00> -32024
01> -43847
00> -31993
01> -43837
00> -31953
01> -43814
00> -31959
01> -43800
00> -32003
01> -43809
00> -32027
01> -43822
00> -32009
01> -43826
00> -31990
01> -43815
00> -31994
01> -43805
00> -32023
01> -43817
00> -32036
01> -43827
00> -32011
01> -43819
00> -31988
01> -43809
00> -31997
01> -43807
00> -32029
01> -43816
00> -32040
01> -43829
00> -32011
01> -43829
00> -31981
01> -43826
00> -31991
01> -43826
00> -32036
01> -43841
00> -32063
01> -43863
00> -32037
01> -43866
00> -32007
01> -43854
00> -32017
01> -43843
00> -32051
01> -43850
00> -32069
01> -43857
00> -32043
01> -43854
00> -32006
01> -43832
00> -32004
01> -43821
00> -32042
01> -43831
00> -32064
01> -43844
00> -32046
01> -43854
00> -32022
01> -43870
00> -32034
01> -43877
00> -32072
01> -43872
00> -32086
01> -43869
00> -32062
01> -43872
00> -32027
01> -43863
00> -32038
01> -43863
00> -32078
01> -43883
00> -32096
01> -43904
00> -32080
01> -43921
00> -32050
01> -43934
00> -32048
01> -43940
00> -32084
01> -43957
00> -32109
01> -43986
00> -32089
01> -43996
00> -32059
01> -43985
00> -32058
01> -43979
00> -32091
01> -43990
00> -32108
01> -44011
00> -32090
01> -44034
00> -32064
01> -44036
00> -32071
01> -44032
00> -32114
01> -44049
00> -32141
01> -44067
00> -32119
01> -44077
00> -32080
01> -44074
00> -32079
01> -44077
00> -32121
01> -44102
00> -32150
01> -44126
00> -32133
01> -44140
00> -32098
01> -44139
00> -32099
01> -44142
00> -32139
01> -44165
00> -32169
01> -44196
00> -32156
01> -44217
00> -32133
01> -44229
00> -32142
01> -44241
00> -32193
01> -44271
00> -32234
01> -44310
00> -32217
01> -44341
00> -32187
01> -44359
00> -32200
01> -44379
00> -32251
01> -44412
00> -32284
01> -44452
00> -32277
01> -44482
00> -32256
01> -44495
00> -32269
01> -44518
00> -32320
01> -44562
00> -32354
01> -44600
00> -32336
01> -44624
00> -32308
01> -44641
00> -32320
01> -44660
00> -32360
01> -44690
00> -32397
01> -44728
00> -32388
01> -44756
00> -32369
01> -44758
00> -32373
01> -44754
00> -32406
01> -44760
00> -32432
01> -44779
00> -32415
01> -44793
00> -32391
01> -44799
00> -32397
01> -44798
00> -32432
01> -44809
00> -32457
01> -44830
00> -32441
01> -44843
00> -32406
01> -44836
00> -32409
01> -44831
00> -32454
01> -44840
00> -32475
01> -44861
00> -32447
01> -44874
00> -32411
01> -44868
00> -32414
01> -44867
00> -32456
01> -44879
00> -32483
01> -44895
00> -32467
01> -44901
00> -32441
01> -44897
00> -32434
01> -44890
00> -32469
01> -44906
00> -32493
01> -44926
00> -32478
01> -44934
00> -32457
01> -44926
00> -32456
01> -44919
00> -32492
01> -44927
00> -32522
01> -44941
00> -32497
01> -44947
00> -32452
01> -44939
00> -32442
01> -44930
00> -32481
01> -44942
00> -32512
01> -44966
00> -32487
01> -44978
00> -32447
01> -44966
00> -32449
01> -44956
00> -32486
01> -44962
00> -32515
01> -44976
00> -32505
01> -44978
00> -32470
01> -44971
00> -32464
01> -44962
00> -32481
01> -44958
00> -32497
01> -44962
00> -32484
01> -44964
00> -32452
01> -44946
00> -32440
01> -44926
00> -32455
01> -44917
00> -32465
01> -44918
00> -32426
01> -44889
00> -32399
01> -44862
00> -32396
01> -44840
00> -32398
01> -44800
00> -32388
01> -44754
00> -32341
01> -44691
00> -32279
01> -44601
00> -32247
01> -44517
00> -32259
01> -44462
00> -32257
01> -44426
00> -32212
01> -44394
00> -32156
01> -44360
00> -32136
01> -44336
00> -32160
01> -44339
00> -32176
01> -44359
00> -32151
01> -44367
00> -32119
01> -44362
00> -32116
01> -44356
00> -32141
01> -44356
00> -32157
01> -44365
00> -32143
01> -44371
00> -32101
01> -44359
00> -32083
01> -44350
00> -32112
01> -44359
00> -32126
01> -44367
00> -32095
01> -44366
00> -32048
01> -44342
00> -32032
01> -44312
00> -32069
01> -44315
00> -32092
01> -44310
00> -32047
01> -44269
00> -32009
01> -44236
00> -32021
01> -44229
00> -32045
01> -44221
00> -32036
01> -44204
00> -32002
01> -44179
00> -31956
01> -44143
00> -31937
01> -44110
00> -31972
01> -44094
00> -31991
01> -44076
00> -31969
01> -44045
00> -31942
01> -44022
00> -31941
01> -44002
00> -31965
01> -43991
00> -31979
01> -43981
00> -31952
01> -43965
00> -31901
01> -43941
00> -31885
01> -43916
00> -31919
01> -43916
00> -31941
01> -43937
00> -31924
01> -43948
00> -31902
01> -43952
00> -31911
01> -43952
00> -31955
01> -43972
00> -31991
01> -44012
00> -31987
01> -44047
00> -31966
01> -44064
00> -31969
01> -44077
00> -32012
01> -44109
00> -32031
01> -44137
00> -32015
01> -44161
00> -31985
01> -44173
00> -31986
01> -44184
00> -32027
01> -44201
00> -32047
01> -44211
00> -32025
01> -44214
00> -31999
01> -44229
00> -32004
01> -44246
00> -32046
01> -44276
00> -32075
01> -44323
00> -32041
01> -44357
00> -31990
01> -44356
00> -31989
01> -44357
00> -32036
01> -44382
00> -32079
01> -44437
00> -32063
01> -44481
00> -32032
01> -44496
00> -32026
01> -44511
00> -32059
01> -44538
00> -32072
01> -44566
00> -32042
01> -44590
00> -32009
01> -44610
00> -32002
01> -44618
00> -32045
01> -44654
00> -32068
01> -44692
00> -32037
01> -44698
00> -32012
01> -44717
00> -32014
01> -44735
00> -32038
01> -44744
00> -32057
01> -44763
00> -32030
01> -44767
00> -31996
01> -44764
00> -31988
01> -44767
00> -32017
01> -44786
00> -32041
01> -44804
00> -32029
01> -44816
00> -31999
01> -44809
00> -31993
01> -44795
00> -32015
01> -44804
00> -32047
01> -44834
00> -32046
01> -44856
00> -31999
01> -44832
00> -31977
01> -44812
00> -32018
01> -44844
00> -32041
01> -44848
00> -32026
01> -44853
00> -31994
01> -44845
00> -31989
01> -44843
00> -32017
01> -44834
00> -32051
01> -44845
00> -32029
01> -44847
00> -32004
01> -44849
00> -31998
01> -44859
00> -32017
01> -44857
00> -32028
01> -44860
00> -32000
01> -44862
00> -31969
01> -44857
00> -31972
01> -44856
00> -32021
01> -44854
00> -32059
01> -44862
00> -32059
01> -44872
00> -32025
01> -44862
00> -32006
01> -44845
00> -32034
01> -44847
00> -32072
01> -44853
00> -32059
01> -44848
00> -32011
01> -44836
00> -31993
01> -44821
00> -32009
01> -44818
00> -32032
01> -44817
00> -32012
01> -44806
00> -31982
01> -44795
00> -31979
01> -44772
00> -32013
01> -44762
00> -32024
01> -44741
00> -31975
01> -44694
00> -31904
01> -44624
00> -31886
01> -44576
00> -31908
01> -44544
00> -31926
01> -44516
00> -31907
01> -44482
00> -31867
01> -44442
00> -31843
01> -44401
00> -31853
01> -44377
00> -31872
01> -44370
00> -31854
01> -44366
00> -31831
01> -44360
00> -31836
01> -44356
00> -31884
01> -44392
00> -31924
01> -44440
00> -31926
01> -44469
00> -31913
01> -44483
00> -31924
01> -44503
00> -31976
01> -44539
00> -32028
01> -44590
00> -32043
01> -44636
00> -32032
01> -44661
00> -32051
01> -44685
00> -32107
01> -44717
00> -32164
01> -44756
00> -32186
01> -44794
00> -32186
01> -44817
00> -32198
01> -44836
00> -32244
01> -44864
00> -32281
01> -44892
00> -32290
01> -44909
00> -32279
01> -44916
00> -32295
01> -44927
00> -32347
01> -44947
00> -32391
01> -44977
00> -32389
01> -44993
00> -32358
01> -44997
00> -32362
01> -44998
00> -32403
01> -45002
00> -32431
01> -45017
00> -32421
01> -45027
00> -32387
01> -45017
00> -32376
01> -45007
00> -32414
01> -45005
00> -32445
01> -45010
00> -32434
01> -45006
00> -32401
01> -44991
00> -32388
01> -44971
00> -32415
01> -44968
00> -32447
01> -44974
00> -32441
01> -44976
00> -32405
01> -44958
00> -32393
01> -44944
00> -32411
01> -44935
00> -32436
01> -44941
00> -32419
01> -44941
00> -32363
01> -44917
00> -32331
01> -44887
00> -32350
01> -44866
00> -32388
01> -44841
00> -32382
01> -44781
00> -32299
01> -44707
00> -32261
01> -44682
00> -32272
01> -44666
00> -32281
01> -44642
00> -32251
01> -44622
00> -32199
01> -44587
00> -32169
01> -44562
00> -32180
01> -44554
00> -32183
01> -44554
00> -32144
01> -44539
00> -32081
01> -44514
00> -32061
01> -44493
00> -32088
01> -44496
00> -32103
01> -44509
00> -32071
01> -44529
00> -32017
01> -44532
00> -31991
01> -44520
00> -31998
01> -44526
00> -32000
01> -44527
00> -31969
01> -44519
00> -31927
01> -44522
00> -31904
01> -44521
00> -31919
01> -44523
00> -31952
01> -44541
00> -31953
01> -44553
00> -31920
01> -44554
00> -31912
01> -44559
00> -31956
01> -44574
00> -31997
01> -44606
00> -31982
01> -44623
00> -31948
01> -44633
00> -31946
01> -44644
00> -31989
01> -44669
00> -32024
01> -44694
00> -32018
01> -44717
00> -31995
01> -44723
00> -31994
01> -44727
00> -32036
01> -44747
00> -32071
01> -44778
00> -32068
01> -44793
00> -32040
01> -44794
00> -32039
01> -44789
00> -32062
01> -44797
00> -32101
01> -44824
00> -32101
01> -44846
00> -32078
01> -44849
00> -32072
01> -44836
00> -32097
01> -44835
00> -32127
01> -44841
00> -32125
01> -44857
00> -32100
01> -44863
00> -32090
01> -44858
00> -32121
01> -44866
00> -32151
01> -44874
00> -32146
01> -44876
00> -32117
01> -44866
00> -32102
01> -44848
00> -32134
01> -44849
00> -32160
01> -44860
00> -32156
01> -44871
00> -32129
01> -44869
00> -32119
01> -44864
00> -32141
01> -44864
00> -32165
01> -44869
00> -32161
01> -44873
00> -32130
01> -44865
00> -32117
01> -44853
00> -32150
01> -44859
00> -32179
01> -44869
00> -32171
01> -44869
00> -32137
01> -44861
00> -32123
01> -44849
00> -32151
01> -44850
00> -32174
01> -44865
00> -32152
01> -44865
00> -32108
01> -44844
00> -32097
01> -44834
00> -32130
01> -44840
00> -32164
01> -44854
00> -32156
01> -44861
00> -32124
01> -44860
00> -32117
01> -44856
00> -32157
01> -44875
00> -32202
01> -44904
00> -32203
01> -44926
00> -32172
01> -44924
00> -32152
01> -44906
00> -32176
01> -44899
00> -32216
01> -44913
00> -32216
01> -44928
00> -32193
01> -44920
00> -32184
01> -44902
00> -32213
01> -44901
00> -32242
01> -44901
00> -32233
01> -44889
00> -32199
01> -44874
00> -32186
01> -44859
00> -32217
01> -44861
00> -32249
01> -44877
00> -32241
01> -44889
00> -32209
01> -44886
00> -32207
01> -44871
00> -32246
01> -44881
00> -32294
01> -44916
00> -32309
01> -44956
00> -32297
01> -44982
00> -32301
01> -45015
00> -32356
01> -45079
00> -32409
01> -45144
00> -32417
01> -45189
00> -32401
01> -45217
00> -32402
01> -45228
00> -32432
01> -45233
00> -32466
01> -45244
00> -32476
01> -45257
00> -32446
01> -45241
00> -32426
01> -45222
00> -32464
01> -45228
00> -32509
01> -45245
00> -32502
01> -45254
00> -32461
01> -45245
00> -32441
01> -45232
00> -32472
01> -45230
00> -32501
01> -45236
00> -32494
01> -45242
00> -32477
01> -45233
00> -32473
01> -45221
00> -32508
01> -45219
00> -32545
01> -45227
00> -32532
01> -45229
00> -32492
01> -45217
00> -32487
01> -45204
00> -32522
01> -45213
00> -32564
01> -45230
00> -32556
01> -45232
00> -32523
01> -45220
00> -32511
01> -45206
00> -32544
01> -45211
00> -32573
01> -45221
00> -32564
01> -45231
00> -32538
01> -45224
00> -32532
01> -45217
00> -32558
01> -45220
00> -32575
01> -45222
00> -32561
01> -45226
00> -32528
01> -45214
00> -32519
01> -45202
00> -32559
01> -45209
00> -32591
01> -45222
00> -32580
01> -45222
00> -32549
01> -45207
00> -32548
01> -45187
00> -32586
01> -45184
00> -32612
01> -45192
00> -32601
01> -45190
00> -32566
01> -45169
00> -32554
01> -45156
00> -32586
01> -45161
00> -32620
01> -45168
00> -32613
01> -45166
00> -32574
01> -45148
00> -32570
01> -45138
00> -32614
01> -45151
00> -32642
01> -45161
00> -32632
01> -45165
00> -32592
01> -45146
00> -32582
01> -45129
00> -32624
01> -45121
00> -32659
01> -45101
00> -32647
01> -45071
00> -32622
01> -45028
00> -32620
01> -44996
00> -32647
01> -44987
00> -32669
01> -44987
00> -32666
01> -44998
00> -32641
01> -44999
00> -32630
01> -44996
00> -32661
01> -45007
00> -32706
01> -45034
00> -32721
01> -45053
00> -32714
01> -45035
00> -32717
01> -45014
00> -32757
01> -45014
00> -32795
01> -45029
00> -32796
01> -45037
00> -32767
01> -45031
00> -32762
01> -45026
00> -32797
01> -45026
00> -32818
01> -45031
00> -32809
01> -45044
00> -32777
01> -45040
00> -32762
01> -45027
00> -32789
01> -45034
00> -32808
01> -45049
00> -32795
01> -45061
00> -32767
01> -45056
00> -32759
01> -45054
00> -32786
01> -45069
00> -32808
01> -45081
00> -32784
01> -45091
00> -32741
01> -45087
00> -32727
01> -45087
00> -32747
01> -45094
00> -32766
01> -45104
00> -32754
01> -45112
00> -32712
01> -45098
00> -32699
01> -45085
00> -32728
01> -45086
00> -32751
01> -45106
00> -32725
01> -45121
00> -32674
01> -45111
00> -32656
01> -45102
00> -32681
01> -45110
00> -32701
01> -45119
00> -32684
01> -45126
00> -32644
01> -45116
00> -32624
01> -45099
00> -32646
01> -45092
00> -32668
01> -45104
00> -32654
01> -45126
00> -32614
01> -45123
00> -32597
01> -45116
00> -32616
01> -45119
00> -32628
01> -45127
00> -32616
01> -45131
00> -32580
01> -45125
00> -32568
01> -45110
00> -32611
01> -45119
00> -32647
01> -45129
00> -32636
01> -45126
00> -32595
01> -45109
00> -32581
01> -45091
00> -32611
01> -45089
00> -32642
01> -45104
00> -32637
01> -45116
00> -32598
01> -45106
00> -32581
01> -45087
00> -32613
01> -45091
00> -32649
01> -45097
00> -32651
01> -45097
00> -32629
01> -45094
00> -32626
01> -45089
00> -32658
01> -45086
00> -32685
01> -45082
00> -32685
01> -45092
00> -32654
01> -45092
00> -32635
01> -45081
00> -32664
01> -45077
00> -32685
01> -45081
00> -32669
01> -45089
00> -32644
01> -45081
00> -32639
01> -45060
00> -32672
01> -45056
00> -32708
01> -45066
00> -32704
01> -45072
00> -32661
01> -45064
00> -32619
01> -45054
00> -32630
01> -45061
00> -32656
01> -45074
00> -32658
01> -45084
00> -32634
01> -45076
00> -32616
01> -45071
00> -32639
01> -45077
00> -32657
01> -45091
00> -32645
01> -45091
00> -32608
01> -45078
00> -32603
01> -45064
00> -32642
01> -45067
00> -32676
01> -45082
00> -32667
01> -45089
00> -32635
01> -45084
00> -32626
01> -45072
00> -32652
01> -45066
00> -32681
01> -45078
00> -32679
01> -45087
00> -32647
01> -45076
00> -32631
01> -45065
00> -32660
01> -45067
00> -32691
01> -45068
00> -32677
01> -45066
00> -32641
01> -45054
00> -32628
01> -45039
00> -32665
01> -45042
00> -32702
01> -45047
00> -32707
01> -45052
00> -32678
01> -45046
00> -32669
01> -45037
00> -32691
01> -45041
00> -32711
01> -45053
00> -32701
01> -45057
00> -32663
01> -45042
00> -32648
01> -45029
00> -32681
01> -45029
00> -32718
01> -45025
00> -32712
01> -45017
00> -32679
01> -45006
00> -32669
01> -45010
00> -32700
01> -45012
00> -32737
01> -45007
00> -32723
01> -44999
00> -32686
01> -44969
00> -32671
01> -44941
00> -32697
01> -44935
00> -32731
01> -44942
00> -32726
01> -44942
00> -32686
01> -44924
00> -32670
01> -44911
00> -32702
01> -44906
00> -32727
01> -44894
00> -32722
01> -44890
00> -32687
01> -44867
00> -32665
01> -44841
00> -32685
01> -44833
00> -32715
01> -44840
00> -32711
01> -44844
00> -32679
01> -44821
00> -32661
01> -44799
00> -32697
01> -44794
00> -32736
01> -44799
00> -32731
01> -44802
00> -32693
01> -44784
00> -32671
01> -44751
00> -32702
01> -44734
00> -32736
01> -44729
00> -32726
01> -44724
00> -32684
01> -44710
00> -32662
01> -44686
00> -32686
01> -44668
00> -32718
01> -44666
00> -32711
01> -44659
00> -32677
01> -44643
00> -32662
01> -44624
00> -32690
01> -44615
00> -32724
01> -44612
00> -32724
01> -44619
00> -32693
01> -44608
00> -32669
01> -44587
00> -32686
01> -44571
00> -32712
01> -44569
00> -32701
01> -44559
00> -32657
01> -44539
00> -32637
01> -44517
00> -32665
01> -44503
00> -32702
01> -44502
00> -32708
01> -44502
00> -32662
01> -44479
00> -32635
01> -44442
00> -32661
01> -44426
00> -32688
01> -44424
00> -32681
01> -44417
00> -32642
01> -44399
00> -32616
01> -44371
00> -32641
01> -44351
00> -32674
01> -44351
00> -32666
01> -44355
00> -32629
01> -44336
00> -32603
01> -44307
00> -32630
01> -44292
00> -32667
01> -44291
00> -32661
01> -44284
00> -32620
01> -44247
00> -32602
01> -44212
00> -32642
01> -44197
00> -32685
01> -44197
00> -32681
01> -44192
00> -32639
01> -44164
00> -32606
01> -44134
00> -32617
01> -44114
00> -32645
01> -44106
00> -32654
01> -44109
00> -32628
01> -44096
00> -32611
01> -44069
00> -32626
01> -44051
00> -32659
01> -44049
00> -32654
01> -44045
00> -32614
01> -44019
00> -32589
01> -43987
00> -32616
01> -43967
00> -32652
01> -43964
00> -32656
01> -43961
00> -32616
01> -43947
00> -32586
