# SEGGER J-Link RTT Viewer V6.62 Terminal Log File
# Compiled: 16:34:01 on Jan 24 2020
# Logging started @ 20 Jun 2024 15:55:35

00> -31060
01> -45120
00> -30965
01> -45091
00> -31011
01> -45092
00> -31126
01> -45121
00> -31156
01> -45129
00> -31072
01> -45107
00> -30985
01> -45081
00> -31022
01> -45091
00> -31119
01> -45119
00> -31139
01> -45126
00> -31044
01> -45110
00> -30967
01> -45090
00> -31018
01> -45097
00> -31129
01> -45127
00> -31154
01> -45147
00> -31063
01> -45126
00> -30985
01> -45101
00> -31027
01> -45109
00> -31120
01> -45132
00> -31140
01> -45146
00> -31059
01> -45132
00> -30987
01> -45111
00> -31033
01> -45119
00> -31133
01> -45144
00> -31156
01> -45157
00> -31082
01> -45140
00> -31007
01> -45121
00> -31032
01> -45125
00> -31106
01> -45144
00> -31116
01> -45152
00> -31049
01> -45135
00> -30998
01> -45111
00> -31049
01> -45119
00> -31134
01> -45145
00> -31138
01> -45148
00> -31061
01> -45133
00> -31001
01> -45109
00> -31039
01> -45114
00> -31120
01> -45140
00> -31142
01> -45151
00> -31073
01> -45137
00> -31011
01> -45120
00> -31046
01> -45123
00> -31123
01> -45145
00> -31136
01> -45154
00> -31065
01> -45137
00> -31004
01> -45112
00> -31039
01> -45126
00> -31109
01> -45154
00> -31122
01> -45165
00> -31061
01> -45145
00> -31019
01> -45124
00> -31059
01> -45134
00> -31125
01> -45158
00> -31140
01> -45172
00> -31079
01> -45156
00> -31031
01> -45134
00> -31067
01> -45143
00> -31136
01> -45169
00> -31139
01> -45183
00> -31074
01> -45160
00> -31031
01> -45141
00> -31067
01> -45149
00> -31134
01> -45169
00> -31147
01> -45183
00> -31095
01> -45171
00> -31054
01> -45148
00> -31091
01> -45149
00> -31151
01> -45173
00> -31158
01> -45184
00> -31096
01> -45165
00> -31051
01> -45152
00> -31087
01> -45159
00> -31147
01> -45171
00> -31147
01> -45179
00> -31082
01> -45161
01> 
00> -31030
01> -45134
00> -31049
01> -45116
00> -31098
01> -45110
00> -31092
01> -45099
00> -31025
01> -45070
00> -30959
01> -45024
00> -30967
01> -45001
00> -31010
01> -45001
00> -31009
01> -44996
00> -30960
01> -44966
00> -30917
01> -44931
00> -30946
01> -44926
00> -30996
01> -44941
00> -30994
01> -44953
00> -30938
01> -44941
00> -30900
01> -44922
00> -30937
01> -44937
00> -31000
01> -44965
00> -31001
01> -44977
00> -30947
01> -44968
00> -30916
01> -44954
00> -30949
01> -44964
00> -30999
01> -44990
00> -30992
01> -45000
00> -30933
01> -44991
00> -30903
01> -44985
00> -30946
01> -44995
00> -31010
01> -45019
00> -31011
01> -45028
00> -30952
01> -45011
00> -30912
01> -44990
00> -30956
01> -45002
00> -31022
01> -45035
00> -31024
01> -45043
00> -30967
01> -45026
00> -30926
01> -45010
00> -30947
01> -45017
00> -30991
01> -45037
00> -30992
01> -45047
00> -30951
01> -45034
00> -30924
01> -45020
00> -30950
01> -45025
00> -30991
01> -45042
00> -30994
01> -45051
00> -30960
01> -45038
00> -30945
01> -45027
00> -30976
01> -45034
00> -31016
01> -45056
00> -31014
01> -45066
00> -30971
01> -45052
00> -30932
01> -45037
00> -30952
01> -45044
00> -30992
01> -45056
00> -30997
01> -45064
00> -30959
01> -45054
00> -30933
01> -45039
00> -30979
01> -45048
00> -31027
01> -45072
00> -31023
01> -45077
00> -30974
01> -45067
00> -30940
01> -45049
00> -30966
01> -45049
00> -31015
01> -45067
00> -31027
01> -45081
00> -30986
01> -45066
00> -30958
01> -45049
00> -30984
01> -45048
00> -31017
01> -45064
00> -31009
01> -45079
00> -30949
01> -45059
00> -30905
01> -45024
00> -30929
01> -45019
00> -30981
01> -45024
00> -30984
01> -45022
00> -30927
01> -45005
00> -30877
01> -44970
00> -30897
01> -44958
00> -30936
01> -44967
00> -30926
01> -44964
00> -30870
01> -44939
00> -30829
01> -44915
00> -30849
01> -44919
00> -30881
01> -44937
00> -30874
01> -44947
00> -30828
01> -44932
00> -30804
01> -44915
00> -30834
01> -44925
00> -30876
01> -44944
00> -30877
01> -44948
00> -30829
01> -44934
00> -30786
01> -44924
00> -30806
01> -44929
00> -30852
01> -44950
00> -30857
01> -44964
00> -30812
01> -44949
00> -30775
01> -44926
00> -30811
01> -44937
00> -30873
01> -44968
00> -30889
01> -44986
00> -30843
01> -44976
00> -30798
01> -44952
00> -30820
01> -44959
00> -30869
01> -44981
00> -30880
01> -44991
00> -30834
01> -44976
00> -30795
01> -44953
00> -30818
01> -44955
00> -30872
01> -44979
00> -30897
01> -44997
00> -30864
01> -44982
00> -30813
01> -44956
00> -30813
01> -44956
00> -30861
01> -44979
00> -30895
01> -44995
00> -30863
01> -44982
00> -30817
01> -44963
00> -30824
01> -44968
00> -30881
01> -44996
00> -30911
01> -45014
00> -30872
01> -44994
00> -30814
01> -44970
00> -30816
01> -44967
00> -30872
01> -44986
00> -30903
01> -44998
00> -30869
01> -44988
00> -30818
01> -44971
00> -30825
01> -44972
00> -30881
01> -44992
00> -30908
00> -30714
01> -43904
00> -30844
01> -43931
00> -30966
01> -43964
00> -30907
01> -43958
00> -30750
01> -43924
00> -30708
01> -43908
00> -30838
01> -43936
00> -30959
01> -43968
00> -30896
01> -43957
00> -30742
01> -43918
00> -30713
01> -43902
00> -30854
01> -43935
00> -30982
01> -43974
00> -30917
01> -43967
00> -30747
01> -43924
00> -30705
01> -43908
00> -30831
01> -43934
00> -30961
01> -43969
00> -30908
01> -43966
00> -30757
01> -43934
00> -30731
01> -43922
00> -30866
01> -43950
00> -30991
01> -43984
00> -30934
01> -43978
00> -30773
01> -43932
00> -30740
01> -43921
00> -30873
01> -43958
00> -30996
01> -44004
00> -30935
01> -43995
00> -30776
01> -43951
00> -30736
01> -43927
00> -30873
01> -43955
00> -31011
01> -43996
00> -30959
01> -43992
00> -30796
01> -43949
00> -30754
01> -43935
00> -30896
01> -43967
00> -31029
01> -44005
00> -30970
01> -43989
00> -30812
01> -43944
00> -30767
01> -43932
00> -30898
01> -43963
00> -31033
01> -44003
00> -30981
01> -43996
00> -30823
01> -43959
00> -30778
01> -43942
00> -30902
01> -43968
00> -31028
01> -44007
00> -30987
01> -44011
00> -30853
01> -43983
00> -30821
01> -43971
00> -30950
01> -43997
00> -31081
01> -44032
00> -31034
01> -44031
00> -30889
01> -44002
00> -30852
01> -43989
00> -30976
01> -44022
00> -31104
01> -44063
00> -31051
01> -44059
00> -30894
01> -44019
00> -30847
01> -43999
00> -30981
01> -44037
00> -31126
01> -44081
00> -31081
01> -44086
00> -30921
01> -44047
00> -30867
01> -44029
00> -30997
01> -44059
00> -31132
01> -44104
00> -31091
01> -44109
00> -30949
01> -44081
00> -30902
01> -44073
00> -31027
01> -44102
00> -31182
01> -44156
00> -31155
01> -44171
00> -31004
01> -44140
00> -30951
01> -44117
00> -31078
01> -44142
00> -31226
01> -44193
00> -31194
01> -44201
00> -31046
01> -44166
00> -30994
01> -44152
00> -31114
01> -44191
00> -31254
01> -44246
00> -31222
01> -44256
00> -31082
01> -44221
00> -31041
01> -44210
00> -31167
01> -44242
00> -31302
01> -44286
00> -31269
01> -44302
00> -31132
01> -44274
00> -31094
01> -44266
00> -31226
01> -44311
00> -31373
01> -44371
00> -31349
01> -44379
00> -31212
01> -44341
00> -31164
01> -44327
00> -31292
01> -44366
00> -31442
01> -44417
00> -31419
01> -44423
00> -31299
01> -44401
00> -31260
01> -44393
00> -31387
01> -44422
00> -31548
01> -44474
00> -31547
01> -44482
00> -31436
01> -44452
00> -31411
01> -44438
00> -31549
01> -44477
00> -31711
01> -44528
00> -31708
01> -44539
00> -31587
01> -44506
00> -31556
01> -44490
00> -31682
01> -44529
00> -31821
01> -44580
00> -31804
01> -44598
00> -31696
01> -44581
00> -31657
01> -44571
00> -31776
01> -44610
00> -31912
01> -44659
00> -31897
01> -44674
00> -31782
01> -44659
00> -31748
01> -44647
00> -31861
01> -44675
00> -31996
01> -44721
00> -31982
01> -44739
00> -31871
01> -44724
00> -31839
01> -44720
00> -31949
01> -44759
00> -32066
01> -44806
00> -32047
01> -44806
00> -31942
01> -44787
00> -31911
01> -44792
00> -32022
01> -44829
00> -32136
01> -44877
00> -32116
01> -44887
00> -32010
01> -44867
00> -31978
01> -44856
00> -32086
01> -44891
00> -32196
01> -44937
00> -32171
01> -44949
00> -32060
01> -44922
00> -32024
01> -44915
00> -32122
01> -44949
00> -32241
01> -44997
00> -32241
01> -45012
00> -32148
01> -44994
00> -32114
01> -44989
00> -32208
01> -45021
00> -32312
01> -45066
00> -32293
01> -45079
00> -32202
01> -45055
00> -32182
01> -45045
00> -32271
01> -45079
00> -32362
01> -45126
00> -32340
01> -45141
00> -32248
01> -45117
00> -32219
01> -45104
00> -32313
01> -45134
00> -32424
01> -45182
00> -32419
01> -45196
00> -32338
01> -45174
00> -32312
01> -45165
00> -32395
01> -45190
00> -32481
01> -45229
00> -32468
01> -45236
00> -32385
01> -45209
00> -32369
01> -45199
00> -32463
01> -45239
00> -32548
01> -45282
00> -32512
01> -45286
00> -32412
01> -45268
00> -32389
01> -45262
00> -32474
01> -45295
00> -32576
01> -45344
00> -32561
01> -45357
00> -32486
01> -45339
00> -32466
01> -45329
00> -32539
01> -45351
00> -32616
01> -45395
00> -32599
01> -45402
00> -32520
01> -45377
00> -32507
01> -45369
00> -32596
01> -45393
00> -32670
01> -45424
00> -32652
01> -45434
00> -32574
01> -45407
00> -32541
01> -45380
00> -32605
01> -45396
00> -32679
01> -45429
00> -32649
01> -45432
00> -32570
01> -45411
00> -32550
01> -45395
00> -32608
01> -45411
00> -32666
01> -45434
00> -32647
01> -45435
00> -32581
01> -45421
00> -32570
01> -45414
00> -32631
01> -45429
00> -32681
01> -45444
00> -32646
01> -45432
00> -32579
01> -45399
00> -32567
01> -45387
00> -32624
01> -45401
00> -32667
01> -45416
00> -32626
01> -45405
00> -32559
01> -45380
00> -32552
01> -45363
00> -32612
01> -45381
00> -32650
01> -45398
00> -32614
01> -45387
00> -32541
01> -45351
00> -32526
01> -45329
00> -32576
01> -45340
00> -32612
01> -45362
00> -32566
01> -45336
00> -32494
01> -45290
00> -32472
01> -45249
00> -32510
01> -45226
00> -32541
01> -45211
00> -32498
01> -45169
00> -32401
01> -45078
00> -32342
01> -44977
00> -32351
01> -44912
00> -32364
01> -44864
00> -32304
01> -44785
00> -32212
01> -44680
00> -32180
01> -44589
00> -32202
01> -44522
00> -32217
01> -44474
00> -32171
01> -44421
00> -32117
01> -44367
00> -32105
01> -44327
00> -32144
01> -44324
00> -32177
01> -44341
00> -32149
01> -44339
00> -32112
01> -44319
00> -32129
01> -44319
00> -32185
01> -44346
00> -32221
01> -44380
00> -32195
01> -44399
00> -32151
01> -44401
00> -32158
01> -44404
00> -32206
01> -44434
00> -32238
01> -44467
00> -32214
01> -44478
00> -32191
01> -44479
00> -32214
01> -44497
00> -32260
01> -44531
00> -32294
01> -44580
00> -32269
01> -44588
00> -32235
01> -44581
00> -32240
01> -44572
00> -32284
01> -44597
00> -32310
01> -44626
00> -32287
01> -44641
00> -32256
01> -44633
00> -32253
01> -44625
00> -32292
01> -44642
00> -32313
01> -44668
00> -32274
01> -44675
00> -32231
01> -44673
00> -32248
01> -44672
00> -32301
01> -44695
00> -32332
01> -44728
00> -32302
01> -44729
00> -32251
01> -44703
00> -32257
01> -44697
00> -32302
01> -44724
00> -32330
01> -44756
00> -32291
01> -44757
00> -32251
01> -44735
00> -32259
01> -44716
00> -32300
01> -44734
00> -32310
01> -44749
00> -32269
01> -44739
00> -32229
01> -44722
00> -32243
01> -44727
00> -32282
01> -44748
00> -32287
01> -44757
00> -32239
01> -44747
00> -32205
01> -44733
00> -32226
01> -44722
00> -32269
01> -44738
00> -32277
01> -44751
00> -32236
01> -44740
00> -32202
01> -44720
00> -32213
01> -44716
00> -32252
01> -44727
00> -32267
01> -44739
00> -32231
01> -44736
00> -32198
01> -44715
00> -32204
01> -44693
00> -32237
01> -44708
00> -32241
01> -44731
00> -32197
01> -44727
00> -32160

00> -32176
01> -44698
00> -32227
01> -44712
00> -32257
01> -44732
00> -32230
01> -44732
00> -32199
01> -44717
00> -32207
01> -44709
00> -32226
01> -44711
00> -32217
01> -44723
00> -32178
01> -44719
00> -32152
01> -44704
00> -32163
01> -44692
00> -32185
01> -44698
00> -32191
01> -44709
00> -32150
01> -44712
00> -32109
01> -44687
00> -32117
01> -44667
00> -32165
01> -44687
00> -32184
01> -44711
00> -32155
01> -44709
00> -32118
01> -44694
00> -32118
01> -44687
00> -32138
01> -44692
00> -32149
01> -44706
00> -32108
01> -44704
00> -32069
01> -44683
00> -32078
01> -44673
00> -32112
01> -44672
00> -32128
01> -44689
00> -32100
01> -44694
00> -32064
01> -44676
00> -32059
01> -44663
00> -32084
01> -44660
00> -32105
01> -44672
00> -32085
01> -44673
00> -32054
01> -44656
00> -32062
01> -44644
00> -32096
01> -44651
00> -32092
01> -44667
00> -32044
01> -44652
00> -32006
01> -44621
00> -32017
01> -44606
00> -32061
01> -44614
00> -32073
01> -44624
00> -32043
01> -44626
00> -31994
01> -44605
00> -31976
01> -44574
00> -32007
01> -44590
00> -32037
01> -44624
00> -32011
01> -44623
00> -31962
01> -44603
00> -31962
01> -44595
00> -32012
01> -44629
00> -32032
01> -44662
00> -32005
01> -44679
00> -31981
01> -44686
00> -31987
01> -44690
00> -32018
01> -44719
00> -32034
01> -44763
00> -32005
01> -44790
00> -31963
01> -44801
00> -31969
01> -44817
00> -32014
01> -44852
00> -32042
01> -44889
00> -32006
01> -44907
00> -31957
01> -44904
00> -31949
01> -44892
00> -31984
01> -44907
00> -31997
01> -44924
00> -31962
01> -44908
00> -31949
01> -44906
00> -31959
01> -44911
00> -31981
01> -44921
00> -31981
01> -44929
00> -31931
01> -44910
00> -31888
01> -44882
00> -31917
01> -44892
00> -31972
01> -44916
00> -31992
01> -44937
00> -31954
01> -44929
00> -31911
01> -44897
00> -31899
01> -44871
00> -31927
01> -44872
00> -31946
01> -44884
00> -31921
01> -44897
00> -31903
01> -44894
00> -31905
01> -44877
00> -31914
01> -44869
00> -31929
01> -44895
00> -31903
01> -44896
00> -31872
01> -44874
00> -31879
01> -44858
00> -31912
01> -44874
00> -31912
01> -44891
00> -31874
01> -44891
00> -31851
01> -44884
00> -31864
01> -44864
00> -31909
01> -44878
00> -31922
01> -44900
00> -31881
01> -44899
00> -31841
01> -44879
00> -31851
01> -44864
00> -31887
01> -44884
00> -31890
01> -44901
00> -31826
01> -44865
00> -31812
01> -44861
00> -31856
01> -44891
00> -31891
01> -44904
00> -31896
01> -44915
00> -31851
01> -44904
00> -31802
01> -44864
00> -31777
01> -44807
00> -31826
01> -44831
00> -31868
01> -44873
00> -31833
01> -44858
00> -31784
01> -44799
00> -31781
01> -44723
00> -31807
01> -44686
00> -31814
01> -44662
00> -31773
01> -44617
00> -31727
01> -44551
00> -31731
01> -44490
00> -31744
01> -44439
00> -31734
01> -44387
00> -31701
01> -44347
00> -31672
01> -44300
00> -31690
01> -44269
00> -31721
01> -44251
00> -31710
01> -44227
00> -31660
01> -44186
00> -31629
01> -44145
00> -31629
01> -44104
00> -31666
01> -44114
00> -31699
01> -44159
00> -31677
01> -44171
00> -31650
01> -44151
00> -31657
01> -44144
00> -31697
01> -44159
00> -31702
01> -44167
00> -31666
01> -44166
00> -31633
01> -44156
00> -31643
01> -44155
00> -31680
01> -44165
00> -31692
01> -44174
00> -31667
01> -44186
00> -31620
01> -44161
00> -31616
01> -44149
00> -31662
01> -44175
00> -31683
01> -44195
00> -31651
01> -44181
00> -31614
01> -44163
00> -31621
01> -44167
00> -31665
01> -44183
00> -31689
01> -44201
00> -31653
01> -44197
00> -31604
01> -44181
00> -31599
01> -44166
00> -31632
01> -44169
00> -31660
01> -44183
00> -31637
01> -44193
00> -31603
01> -44191
00> -31594
01> -44177
00> -31624
01> -44192
00> -31639
01> -44201
00> -31613
01> -44213
00> -31568
01> -44207
00> -31565
01> -44196
00> -31608
01> -44201
00> -31635
01> -44209
00> -31614
01> -44206
00> -31572
01> -44192
00> -31564
01> -44176
00> -31605
01> -44181
00> -31631
01> -44196
00> -31607
01> -44209
00> -31559
01> -44198
00> -31541
01> -44179
00> -31585
01> -44190
00> -31622
01> -44211
00> -31598
01> -44214
00> -31551
01> -44193
00> -31541
01> -44172
00> -31573
01> -44184
00> -31593
01> -44203
00> -31574
01> -44197
00> -31541
01> -44181
00> -31527
01> -44162
00> -31564
01> -44162
00> -31602
01> -44187
00> -31582
01> -44191
00> -31536
01> -44170
00> -31521
01> -44156
00> -31549
01> -44163
00> -31577
01> -44179
00> -31569
01> -44194
00> -31534
01> -44185
00> -31517
01> -44159
00> -31547
01> -44154
00> -31579
01> -44169
00> -31561
01> -44170
00> -31520
01> -44159
00> -31512
01> -44153
00> -31536
01> -44155
00> -31566
01> -44167
00> -31554
01> -44179
00> -31511
01> -44168
00> -31487
01> -44147
00> -31519
01> -44154
00> -31547
01> -44162
00> -31529
01> -44167
00> -31502
01> -44167
00> -31491
01> -44155
00> -31524
01> -44156
00> -31552
01> -44172
00> -31532
01> -44176
00> -31478
01> -44161
00> -31449
01> -44137
00> -31486
01> -44142
00> -31533
01> -44162
00> -31521
01> -44167
00> -31472
01> -44142
00> -31460
01> -44124
00> -31501
01> -44133
00> -31536
01> -44146
00> -31518
01> -44152
00> -31464
01> -44136
00> -31427
01> -44107
00> -31446
01> -44102
00> -31502
01> -44127
00> -31509
01> -44147
00> -31462
01> -44134
00> -31436
01> -44105
00> -31471
01> -44107
00> -31512
01> -44122
00> -31492
01> -44122
00> -31440
01> -44108
00> -31423
01> -44089
00> -31463
01> -44094
00> -31499
01> -44109
00> -31481
01> -44106
00> -31430
01> -44086
00> -31417
01> -44082
00> -31442
01> -44091
00> -31479
01> -44104
00> -31470
01> -44116
00> -31425
01> -44101
00> -31404
01> -44074
00> -31439
01> -44073
00> -31487
01> -44087
00> -31481
01> -44101
00> -31436
01> -44093
00> -31416
01> -44072
00> -31435
01> -44059
00> -31461
01> -44072
00> -31442
01> -44076
00> -31381
01> -44050
00> -31350
01> -44021
00> -31393
01> -44024
00> -31457
01> -44046
00> -31456
01> -44046
00> -31408
01> -44021
00> -31381
01> -44000
00> -31402
01> -43995
00> -31425
01> -43992
00> -31412
01> -43990
00> -31349
01> -43957
00> -31306
01> -43904
00> -31333
01> -43872
00> -31371
01> -43852
00> -31341
01> -43815
00> -31261
01> -43743
00> -31203
01> -43657
00> -31203
01> -43594
00> -31211
01> -43549
00> -31159
01> -43481
00> -31088
01> -43399
00> -31032
01> -43319
00> -31032
01> -43265
00> -31039
01> -43225
00> -31002
01> -43182
00> -30931
01> -43115
00> -30881
01> -43054
00> -30886
01> -43021
00> -30890
01> -42992
00> -30852
01> -42961
00> -30794
01> -42909
00> -30751
01> -42863
00> -30762
01> -42844
00> -30789
01> -42842
00> -30780
01> -42839
00> -30726
01> -42824
00> -30677
01> -42792
00> -30707
01> -42798
00> -30747
01> -42797
00> -30731
01> -42783
00> -30670
01> -42765
00> -30636
01> -42746
00> -30677
01> -42753
00> -30718
01> -42761
00> -30702
01> -42752
00> -30644
01> -42728
00> -30613
01> -42707
00> -30629
01> -42699
00> -30652
01> -42703
00> -30633
01> -42694
00> -30591
01> -42677
00> -30584
01> -42662
00> -30636
01> -42667
00> -30676
01> -42674
00> -30658
01> -42667
00> -30608
01> -42647
00> -30579
01> -42623
00> -30606
01> -42616
00> -30652
01> -42626
00> -30641
01> -42623
00> -30592
01> -42611
00> -30566
01> -42592
00> -30593
01> -42594
00> -30633
01> -42614
00> -30620
01> -42605
00> -30559
01> -42572
00> -30538
01> -42549
00> -30584
01> -42559
00> -30631
01> -42577
00> -30637
01> -42592
00> -30593
01> -42585
00> -30546
01> -42552
00> -30562
01> -42540
00> -30610
01> -42562
00> -30624
01> -42584
00> -30582
01> -42582
00> -30540
01> -42559
00> -30575
01> -42572
00> -30631
01> -42612
00> -30630
01> -42631
00> -30582
01> -42627
00> -30554
01> -42619
00> -30587
01> -42634
00> -30643
01> -42669
00> -30658
01> -42706
00> -30629
01> -42729
00> -30614
01> -42748
00> -30644
01> -42771
00> -30691
01> -42810
00> -30692
01> -42831
00> -30653
01> -42827
00> -30626
01> -42816
00> -30636
01> -42811
00> -30686
01> -42836
00> -30696
01> -42849
00> -30644
01> -42821
00> -30601
01> -42777
00> -30616
01> -42739
00> -30642
01> -42715
00> -30613
01> -42679
00> -30517
01> -42592
00> -30484
01> -42544
00> -30527
01> -42544
00> -30563
01> -42532
00> -30543
01> -42502
00> -30471
01> -42455
00> -30421
01> -42403
00> -30432
01> -42382
00> -30459
01> -42375
00> -30458
01> -42367
00> -30419
01> -42347
00> -30383
01> -42322
00> -30397
01> -42301
00> -30437
01> -42307
00> -30440
01> -42311
00> -30404
01> -42300
00> -30379
01> -42283
00> -30401
01> -42282
00> -30426
01> -42273
00> -30424
01> -42279
00> -30387
01> -42271
00> -30346
01> -42236
00> -30372
01> -42232
00> -30429
01> -42262
00> -30444
01> -42283
00> -30407
01> -42274
00> -30377
01> -42251
00> -30400
01> -42237
00> -30438
01> -42239
00> -30444
01> -42245
00> -30399
01> -42236
00> -30368
01> -42221
00> -30397
01> -42227
00> -30442
01> -42254
00> -30448
01> -42272
00> -30397
01> -42258
00> -30362
01> -42236
00> -30397
01> -42241
00> -30446
01> -42256
00> -30449
01> -42264
00> -30416
01> -42261
00> -30394
01> -42242
00> -30422
01> -42249
00> -30477
01> -42282
00> -30483
01> -42291
00> -30444
01> -42279
00> -30415
01> -42261
00> -30434
01> -42264
00> -30476
01> -42283
00> -30485
01> -42301
00> -30449
01> -42300
00> -30401
01> -42281
00> -30417
01> -42277
00> -30481
01> -42300
00> -30496
01> -42316
00> -30449
01> -42307
00> -30411
01> -42288
00> -30431
01> -42274
00> -30477
01> -42280
00> -30482
01> -42281
00> -30449
01> -42268
00> -30417
01> -42253
00> -30445
01> -42262
00> -30487
01> -42281
00> -30487
01> -42289
00> -30451
01> -42294
00> -30414
01> -42282
00> -30431
01> -42274
00> -30479
01> -42282
00> -30491
01> -42301
00> -30462
01> -42299
00> -30439
01> -42298
00> -30463
01> -42308
00> -30500
01> -42321
00> -30497
01> -42325
00> -30452
01> -42306
00> -30421
01> -42302
00> -30432
01> -42304
00> -30486
01> -42325
00> -30507
01> -42336
00> -30467
01> -42321
00> -30415
01> -42295
00> -30424
01> -42294
00> -30474
01> -42307
00> -30487
01> -42309
00> -30447
01> -42294
00> -30412
01> -42269
00> -30439
01> -42275
00> -30499
01> -42309
00> -30507
01> -42324
00> -30466
01> -42313
00> -30430
01> -42299
00> -30455
01> -42306
00> -30513
01> -42333
00> -30528
01> -42351
00> -30491
01> -42341
00> -30456
01> -42326
00> -30467
01> -42324
00> -30509
01> -42343
00> -30523
01> -42352
00> -30497
01> -42346
00> -30466
01> -42321
00> -30483
01> -42316
00> -30519
01> -42332
00> -30545
01> -42351
00> -30516
01> -42343
00> -30489
01> -42322
00> -30506
01> -42312
00> -30558
01> -42322
00> -30569
01> -42319
00> -30527
01> -42300
00> -30502
01> -42297
00> -30522
01> -42306
00> -30566
01> -42322
00> -30583
01> -42338
00> -30556
01> -42344
00> -30533
01> -42332
00> -30563
01> -42336
00> -30620
01> -42367
00> -30636
01> -42392
00> -30609
01> -42399
00> -30584
01> -42399
00> -30603
01> -42392
00> -30651
01> -42401
00> -30656
01> -42407
00> -30621
01> -42394
00> -30612
01> -42384
00> -30642
01> -42392
00> -30687
01> -42406
00> -30694
01> -42407
00> -30644
01> -42387
00> -30614
01> -42359
00> -30647
01> -42351
00> -30714
01> -42381
00> -30740
01> -42414
00> -30699
01> -42406
00> -30659
01> -42379
00> -30682
01> -42372
00> -30727
01> -42385
00> -30737
01> -42401
00> -30711
01> -42408
00> -30684
01> -42391
00> -30707
01> -42395
00> -30763
01> -42427
00> -30783
01> -42449
00> -30756

00> -30728
01> -42427
00> -30742
01> -42418
00> -30782
01> -42420
00> -30791
01> -42428
00> -30756
01> -42429
00> -30716
01> -42412
00> -30731
01> -42402
00> -30775
01> -42410
00> -30780
01> -42416
00> -30732
01> -42403
00> -30696
01> -42381
00> -30712
01> -42379
00> -30747
01> -42383
00> -30750
01> -42384
00> -30704
01> -42369
00> -30667
01> -42354
00> -30686
01> -42364
00> -30739
01> -42401
00> -30747
01> -42418
00> -30696
01> -42410
00> -30650
01> -42381
00> -30657
01> -42371
00> -30689
01> -42379
00> -30696
01> -42384
00> -30649
01> -42381
00> -30589
01> -42357
00> -30581
01> -42336
00> -30613
01> -42342
00> -30616
01> -42355
00> -30561
01> -42337
00> -30510
01> -42312
00> -30522
01> -42309
00> -30557
01> -42317
00> -30551
01> -42331
00> -30489
01> -42313
00> -30439
01> -42296
00> -30453
01> -42303
00> -30482
01> -42326
00> -30482
01> -42342
00> -30429
01> -42336
00> -30384
01> -42328
00> -30391
01> -42339
00> -30432
01> -42366
00> -30441
01> -42391
00> -30392
01> -42392
00> -30337
01> -42388
00> -30341
01> -42386
00> -30375
01> -42405
00> -30379
01> -42427
00> -30331
01> -42423
00> -30271
01> -42405
00> -30267
01> -42402
00> -30295
01> -42420
00> -30297
01> -42432
00> -30259
01> -42440
00> -30216
01> -42435
00> -30226
01> -42448
00> -30271
01> -42478
00> -30292
01> -42526
00> -30247
01> -42548
00> -30191
01> -42546
00> -30199
01> -42563
00> -30253
01> -42597
00> -30270
01> -42631
00> -30229
01> -42644
00> -30179
01> -42638
00> -30195
01> -42655
00> -30241
01> -42692
00> -30243
01> -42712
00> -30179
01> -42689
00> -30131
01> -42667
00> -30140
01> -42675
00> -30174
01> -42704
00> -30185
01> -42734
00> -30127
01> -42729
00> -30066
01> -42711
00> -30067
01> -42714
00> -30120
01> -42737
00> -30157
01> -42755
00> -30127
01> -42761
00> -30077
01> -42749
00> -30081
01> -42745
00> -30127
01> -42766
00> -30156
01> -42801
00> -30127
01> -42821
00> -30079
01> -42811
00> -30086
01> -42809
00> -30132
01> -42824
00> -30153
01> -42841
00> -30107
01> -42827
00> -30059
01> -42802
00> -30069
01> -42786
00> -30123
01> -42794
00> -30150
01> -42808
00> -30104
01> -42792
00> -30053
01> -42758
00> -30055
01> -42739
00> -30101
01> -42732
00> -30142
01> -42756
00> -30106
01> -42756
00> -30058
01> -42735
00> -30072
01> -42731
00> -30119
01> -42736
00> -30146
01> -42746
00> -30121
01> -42736
00> -30081
01> -42716
00> -30098
01> -42705
00> -30161
01> -42709
00> -30187
01> -42713
00> -30156
01> -42691
00> -30128
01> -42666
00> -30143
01> -42649
00> -30193
01> -42649
00> -30226
01> -42656
00> -30197
01> -42638
00> -30164
01> -42609
00> -30186
01> -42596
00> -30252
01> -42595
00> -30301
01> -42615
00> -30286
01> -42616
00> -30255
01> -42600
00> -30280
01> -42594
00> -30334
01> -42584
00> -30379
01> -42594
00> -30366
01> -42592
00> -30331
01> -42578
00> -30351
01> -42576
00> -30416
01> -42604
00> -30448
01> -42625
00> -30421
01> -42621
00> -30391
01> -42614
00> -30413
01> -42614
00> -30467
01> -42619
00> -30496
01> -42631
00> -30477
01> -42629
00> -30454
01> -42622
00> -30475
01> -42616
00> -30532
01> -42625
00> -30570
01> -42651
00> -30544
01> -42650
00> -30511
01> -42633
00> -30529
01> -42635
00> -30573
01> -42642
00> -30594
01> -42639
00> -30575
01> -42635
00> -30555
01> -42629
00> -30572
01> -42635
00> -30616
01> -42647
00> -30639
01> -42662
00> -30620
01> -42666
00> -30581
01> -42661
00> -30595
01> -42665
00> -30651
01> -42682
00> -30694
01> -42706
00> -30667
01> -42702
00> -30624
01> -42689
00> -30632
01> -42683
00> -30675
01> -42695
00> -30706
01> -42715
00> -30682
01> -42718
00> -30651
01> -42704
00> -30658
01> -42702
00> -30709
01> -42727
00> -30728
01> -42747
00> -30684
01> -42733
00> -30647
01> -42720
00> -30668
01> -42729
00> -30724
01> -42757
00> -30752
01> -42769
00> -30721
01> -42749
00> -30691
01> -42736
00> -30699
01> -42727
00> -30749
01> -42752
00> -30774
01> -42781
00> -30727
01> -42774
00> -30675
01> -42757
00> -30682
01> -42749
00> -30749
01> -42779
00> -30780
01> -42796
00> -30756
01> -42798
00> -30719
01> -42789
00> -30717
01> -42772
00> -30764
01> -42781
00> -30788
01> -42807
00> -30754
01> -42811
00> -30702
01> -42792
00> -30700
01> -42781
00> -30729
01> -42785
00> -30740
01> -42789
00> -30708
01> -42784
00> -30663
01> -42775
00> -30676
01> -42771
00> -30724
01> -42778
00> -30759
01> -42806
00> -30737
01> -42811
00> -30712
01> -42802
00> -30734
01> -42807
00> -30790
01> -42829
00> -30820
01> -42852
00> -30786
01> -42849
00> -30735
01> -42828
00> -30736
01> -42824
00> -30773
01> -42837
00> -30792
01> -42852
00> -30757
01> -42852
00> -30708
01> -42836
00> -30691
01> -42801
00> -30739
01> -42809
00> -30776
01> -42827
00> -30739
01> -42811
00> -30692
01> -42788
00> -30688
01> -42771
00> -30725
01> -42769
00> -30748
01> -42775
00> -30711
01> -42765
00> -30671
01> -42751
00> -30681
01> -42744
00> -30718
01> -42742
00> -30747
01> -42754
00> -30722
01> -42759
00> -30679
01> -42743
00> -30669
01> -42722
00> -30709
01> -42727
00> -30732
01> -42746
00> -30714
01> -42759
00> -30672
01> -42753
00> -30661
01> -42747
00> -30694
01> -42749
00> -30727
01> -42766
00> -30707
01> -42769
00> -30670
01> -42758
00> -30662
01> -42738
00> -30696
01> -42736
00> -30728
01> -42751
00> -30704
01> -42751
00> -30671
01> -42736
00> -30675
01> -42726
00> -30712
01> -42737
00> -30719
01> -42737
00> -30663
01> -42705
00> -30616
01> -42691
00> -30630
01> -42693
00> -30684
01> -42704
00> -30716
01> -42722
00> -30681
01> -42716
00> -30620
01> -42694
00> -30612
01> -42684
00> -30650
01> -42686
00> -30687
01> -42709
00> -30671
01> -42726
00> -30635
01> -42716
00> -30626
01> -42700
00> -30652
01> -42701
00> -30669
01> -42719
00> -30637
01> -42726
00> -30588
01> -42707
00> -30584
01> -42694
00> -30632
01> -42705
00> -30665
01> -42729
00> -30644
01> -42738
00> -30610
01> -42724
00> -30621
01> -42719
00> -30657
01> -42724
00> -30674
01> -42719
00> -30631
01> -42702
00> -30572
01> -42679
00> -30569
01> -42668
00> -30617
01> -42677
00> -30656
01> -42704
00> -30636
01> -42703
00> -30581
01> -42667
00> -30559
01> -42642
00> -30590
01> -42653
00> -30619
01> -42676
00> -30596
01> -42676
00> -30551
01> -42651
00> -30544
01> -42642
00> -30565
01> -42634
00> -30581
01> -42643
00> -30556
01> -42650
00> -30530
01> -42650
00> -30537
01> -42638
00> -30578
01> -42642
00> -30604
01> -42654
00> -30581
01> -42656
00> -30542
01> -42642
00> -30541
01> -42642
00> -30579
01> -42654
00> -30604
01> -42660
00> -30575
01> -42667
00> -30529
01> -42656
00> -30527
01> -42636
00> -30575
01> -42650
00> -30607
01> -42661
00> -30581
01> -42646
00> -30547
01> -42632
00> -30544
01> -42629
00> -30581
01> -42645
00> -30603
01> -42661
00> -30574
01> -42654
00> -30529
01> -42626
00> -30516
01> -42604
00> -30556
01> -42609
00> -30594
01> -42650
00> -30571
01> -42667
00> -30522
01> -42656
00> -30502
01> -42631
00> -30541
01> -42647
00> -30568
01> -42669
00> -30540
01> -42665
00> -30500
01> -42644
00> -30507
01> -42639
00> -30559
01> -42662
00> -30599
01> -42684
00> -30584
01> -42689
00> -30536
01> -42666
00> -30519
01> -42641
00> -30552
01> -42645
00> -30577
01> -42659
00> -30556
01> -42657
00> -30509
01> -42635
00> -30506
01> -42623
00> -30546
01> -42632
00> -30572
01> -42644
00> -30551
01> -42646
00> -30519
01> -42636
00> -30524
01> -42636
00> -30564
01> -42646
00> -30587
01> -42657
00> -30560
01> -42664
00> -30509
01> -42652
00> -30507
01> -42639
00> -30558
01> -42660
00> -30603
01> -42686
00> -30587
01> -42692
00> -30557
01> -42691
00> -30558
01> -42698
00> -30589
01> -42702
00> -30604
01> -42710
00> -30577
01> -42712
00> -30549
01> -42704
00> -30552
01> -42688
00> -30586
01> -42697
00> -30593
01> -42709
00> -30555
01> -42697
00> -30511
01> -42676
00> -30502
01> -42658
00> -30540
01> -42658
00> -30565
01> -42664
00> -30539
01> -42671
00> -30500
01> -42664
00> -30490
01> -42649
00> -30518
01> -42654
00> -30550
01> -42681
00> -30526
01> -42691
00> -30484
01> -42692
00> -30474
01> -42686
00> -30506
01> -42696
00> -30541
01> -42731
00> -30524
01> -42749
00> -30481
01> -42745
00> -30469
01> -42744
00> -30506
01> -42769
00> -30516
01> -42792
00> -30469
01> -42791
00> -30415
01> -42785
00> -30402
01> -42772
00> -30430
01> -42780
00> -30444
01> -42798
00> -30397
01> -42797
00> -30342
01> -42786
00> -30322
01> -42767
00> -30337
01> -42763
00> -30354
01> -42782
00> -30331
01> -42794
00> -30289
01> -42791
00> -30272
01> -42786
00> -30299
01> -42804
00> -30324
01> -42839
00> -30287
01> -42856
00> -30229
01> -42853
00> -30216
01> -42857
00> -30249
01> -42881
00> -30281
01> -42916
00> -30255
01> -42939
00> -30202
01> -42944
00> -30186
01> -42946
00> -30216
01> -42963
00> -30234
01> -42984
00> -30201
01> -42991
00> -30167
01> -42982
00> -30179
01> -42991
00> -30217
01> -43006
00> -30231
01> -43024
00> -30196
01> -43026
00> -30147
01> -43007
00> -30126
01> -42991
00> -30149
01> -42998
00> -30162
01> -43008
00> -30134
01> -43003
00> -30105
01> -42992
00> -30110
01> -42980
00> -30151
01> -42984
00> -30178
01> -43002
00> -30149
01> -42997
00> -30102
01> -42980
00> -30087
01> -42964
00> -30122
01> -42976
00> -30151
01> -42994
00> -30134
01> -42995
00> -30103
01> -42976
00> -30106
01> -42966
00> -30147
01> -42974
00> -30175
01> -42981
00> -30153
01> -42975
00> -30112
01> -42955
00> -30120
01> -42937
00> -30171
01> -42939
00> -30207
01> -42949
00> -30196
01> -42946
00> -30159
01> -42919
00> -30152
01> -42893
00> -30202
01> -42889
00> -30239
01> -42893
00> -30230
01> -42892
00> -30201
01> -42879
00> -30208
01> -42869
00> -30258
01> -42875
00> -30300
01> -42887
00> -30297
01> -42891
00> -30263
01> -42866
00> -30264
01> -42838
00> -30313
01> -42834
00> -30369
01> -42852
00> -30377
01> -42864
00> -30357
01> -42846
00> -30349
01> -42826
00> -30392
01> -42819
00> -30434
01> -42823
00> -30431
01> -42831
00> -30407
01> -42818
00> -30419
01> -42804
00> -30471
01> -42806
00> -30509
01> -42822
00> -30501
01> -42831
00> -30472
01> -42826
00> -30482
01> -42814
00> -30535
01> -42819
00> -30575
01> -42839
00> -30557
01> -42852
00> -30521
01> -42840
00> -30521
01> -42827
00> -30568
01> -42834
00> -30609
01> -42854
00> -30588
01> -42852
00> -30564
01> -42851
00> -30573
01> -42842
00> -30623
01> -42851
00> -30656
01> -42862
00> -30636
01> -42859
00> -30604
01> -42844
00> -30605
01> -42836
00> -30651
01> -42844
00> -30690
01> -42857
00> -30672
01> -42861
00> -30626
01> -42838
00> -30617
01> -42819
00> -30663
01> -42836
00> -30704
01> -42869
00> -30689
01> -42879
00> -30645
01> -42864
00> -30636
01> -42854
00> -30669
01> -42866
00> -30707
01> -42884
00> -30698
01> -42896
00> -30660
01> -42889
00> -30653
01> -42881
00> -30688
01> -42890
00> -30715
01> -42906
00> -30706
01> -42916
00> -30663
01> -42904
00> -30644
01> -42879
00> -30676
01> -42882
00> -30705
01> -42899
00> -30682
01> -42899
00> -30634
01> -42877
00> -30623
01> -42862
00> -30654
01> -42870
00> -30684
01> -42884
00> -30669
01> -42893
00> -30621
01> -42886
00> -30616
01> -42877
00> -30648
01> -42884
00> -30671
01> -42897
00> -30656
01> -42906
00> -30628
01> -42892
00> -30627
01> -42886
00> -30662
01> -42904
00> -30692
01> -42925
00> -30672
01> -42931
00> -30632
01> -42921
00> -30631
01> -42914
00> -30672
01> -42921
00> -30711
01> -42930
00> -30694
01> -42934
00> -30652
01> -42922
00> -30633
01> -42896
00> -30666
01> -42892
00> -30694
01> -42909
00> -30684
01> -42909
00> -30653
01> -42891
00> -30644
01> -42869
00> -30674
01> -42868
00> -30698
01> -42875
00> -30679
01> -42879
00> -30632
01> -42867
00> -30617
01> -42862
00> -30653
01> -42866
00> -30688
01> -42881
00> -30679
01> -42897
00> -30649
01> -42894
00> -30643
01> -42886
00> -30686
01> -42899
00> -30720
01> -42927
00> -30699
01> -42936
00> -30651
01> -42927
00> -30647
01> -42916
00> -30694
01> -42929
00> -30738
01> -42951
00> -30734
01> -42964
00> -30693
01> -42955
00> -30682
01> -42932
00> -30721
01> -42932
00> -30756
01> -42946
00> -30743
01> -42946
00> -30697
01> -42926
00> -30681
01> -42902
00> -30711
01> -42898
00> -30744
01> -42916
00> -30733
01> -42919
00> -30701
01> -42915
00> -30685
01> -42896
00> -30714
01> -42894
00> -30751
01> -42912
00> -30746
01> -42924
00> -30713
01> -42918
00> -30700
01> -42908
00> -30735
01> -42920
00> -30764
01> -42939
00> -30752
01> -42949
00> -30709
01> -42943
00> -30690
01> -42924
00> -30723
01> -42924
00> -30761
01> -42931
00> -30755
01> -42939
00> -30717
01> -42934
00> -30693
01> -42917
00> -30712
01> -42904
00> -30749
01> -42920
00> -30746
01> -42928
00> -30707
01> -42917
00> -30689
01> -42903
00> -30731
01> -42911
00> -30779
01> -42931
00> -30773
01> -42950
00> -30727
01> -42944
00> -30710
01> -42927
00> -30745
01> -42935
00> -30784
01> -42950
00> -30772
01> -42954
00> -30727
01> -42939
00> -30704
01> -42926
00> -30734
01> -42932
00> -30759
01> -42949
00> -30744
01> -42956
00> -30709
01> -42948
00> -30702
01> -42942
00> -30732
01> -42946
00> -30762
01> -42959
00> -30744
01> -42962
00> -30693
01> -42941
00> -30683
01> -42922
00> -30722
01> -42923
00> -30767
01> -42932
00> -30763
01> -42934
00> -30724
01> -42922
00> -30699
01> -42906
00> -30728
01> -42915
00> -30762
01> -42932
00> -30754
01> -42941
00> -30711
01> -42927
00> -30690
01> -42906
00> -30718
01> -42907
00> -30755
01> -42935
00> -30741
01> -42948
00> -30701
01> -42941
00> -30687
01> -42927
00> -30712
01> -42936
00> -30752
01> -42959
00> -30751
01> -42969
00> -30719
01> -42956
00> -30710
01> -42939
00> -30744
01> -42938
00> -30777
01> -42956
00> -30770
01> -42957
00> -30726
01> -42936
00> -30694
01> -42904
00> -30712
01> -42897
00> -30739
01> -42899
00> -30735
01> -42906
00> -30701
01> -42890
00> -30689
01> -42874
00> -30723
01> -42878
00> -30766
01> -42894
00> -30759
01> -42902
00> -30714
01> -42889
00> -30689
01> -42869
00> -30721
01> -42874
00> -30751
01> -42889
00> -30731
01> -42893
00> -30682
01> -42880
00> -30667
01> -42871
00> -30707
01> -42882
00> -30747
01> -42909
00> -30746
01> -42927
00> -30704
01> -42917
00> -30677
01> -42901
00> -30712
01> -42907
00> -30756
01> -42926
00> -30749
01> -42931
00> -30694
01> -42908
00> -30669
01> -42887
00> -30686
01> -42876
00> -30717
01> -42894
00> -30714
01> -42911
00> -30658
01> -42893
00> -30618
01> -42866
00> -30638
01> -42866
00> -30674
01> -42883
00> -30672
01> -42896
00> -30629
01> -42877
00> -30604
01> -42860
00> -30631
01> -42866
00> -30660
01> -42883
00> -30656
01> -42901
00> -30631
01> -42912
00> -30620
01> -42917
00> -30647
01> -42927
00> -30685
01> -42946
00> -30681
01> -42964
00> -30637
01> -42961
00> -30607
01> -42952
00> -30629
01> -42951
00> -30668
01> -42956
00> -30674
01> -42964
00> -30641
01> -42955
00> -30619
01> -42943
00> -30641
01> -42951
00> -30679
01> -42971
00> -30682
01> -42988
00> -30654
01> -42983
00> -30634
01> -42972
00> -30664
01> -42978
00> -30702
01> -42990
00> -30695
01> -42995
00> -30659
01> -42997
00> -30638
01> -42992
00> -30665
01> -42996
00> -30702
01> -43014
00> -30692
01> -43019
00> -30650
01> -43007
00> -30624
01> -42991
00> -30652
01> -42988
00> -30700
01> -43002
00> -30709
01> -43009
00> -30673
01> -43000
00> -30647
01> -42990
00> -30669
01> -42999
00> -30700
01> -43013
00> -30704
01> -43019
00> -30669
01> -43013
00> -30646
01> -43000
00> -30672
01> -42996
00> -30701
01> -42997
00> -30691
01> -43002
00> -30654
01> -43002
00> -30624
01> -42987
00> -30655
01> -42996
00> -30698
01> -43017
00> -30697
01> -43031
00> -30654
01> -43018
00> -30627
01> -42998
00> -30649
01> -42999
00> -30688
01> -43016
00> -30685
01> -43017
00> -30648
01> -43006
00> -30624
01> -42996
00> -30650
01> -42996
00> -30694
01> -43009
00> -30692
01> -43019
00> -30645
01> -43009
00> -30606
01> -42987
00> -30626
01> -42985
00> -30667
01> -42996
00> -30672
01> -43005
00> -30642
01> -43006
00> -30614
01> -43004
00> -30635
01> -43006
00> -30688
01> -43023
00> -30704
01> -43041
00> -30667
01> -43037
00> -30629
01> -43017
00> -30636
01> -43002
00> -30676
01> -43014
00> -30680
01> -43036
00> -30642
01> -43027
00> -30617
01> -43010
00> -30644
01> -43012
00> -30679
01> -43027
00> -30677
01> -43042
00> -30641
01> -43036
00> -30614
01> -43016
00> -30637
01> -43011
00> -30675
01> -43025
00> -30672
01> -43024
00> -30627
01> -43012
00> -30597
01> -43002
00> -30624
01> -43006
00> -30669
01> -43031
00> -30684
01> -43054
00> -30651
01> -43049
00> -30622
01> -43035
00> -30635
01> -43034
00> -30664
01> -43039
00> -30657
01> -43042
00> -30630
01> -43035
00> -30601
01> -43011
00> -30630
01> -43009
00> -30673
01> -43030
00> -30673
01> -43039
00> -30625
01> -43014
00> -30588
01> -42992
00> -30614
01> -42980
00> -30651
01> -42977
00> -30637
01> -42975
00> -30581
01> -42943
00> -30542
01> -42898
00> -30572
01> -42887
00> -30620
01> -42897
00> -30614
01> -42902
00> -30554
01> -42889
00> -30514
01> -42870
00> -30527
01> -42862
00> -30570
01> -42881
00> -30585
01> -42904
00> -30561
01> -42909
00> -30544
01> -42908
00> -30579
01> -42919
00> -30634
01> -42957
00> -30652
01> -42992
00> -30628
01> -43002
00> -30614
01> -43000
00> -30650
01> -43007
00> -30690
01> -43017
00> -30706
01> -43029
00> -30672
01> -43027
00> -30637
01> -43000
00> -30655
01> -42981
00> -30694
01> -42986
00> -30701
01> -42989
00> -30664
01> -42974
00> -30621
01> -42949
00> -30639
01> -42933
00> -30686
01> -42938
00> -30697
01> -42946
00> -30658
01> -42930
00> -30624
01> -42911
00> -30650
01> -42921
00> -30697
01> -42947
00> -30711
01> -42971
00> -30669
01> -42967
00> -30638
01> -42960
00> -30666
01> -42972
00> -30711
01> -42997
00> -30716
01> -43011
00> -30676
01> -43007
00> -30654
01> -42992
00> -30680
01> -42991
00> -30722
01> -43001
00> -30722
01> -43005
00> -30682
01> -42995
00> -30655
01> -42976
00> -30679
01> -42971
00> -30710
01> -42982
00> -30702
01> -42982
00> -30644
01> -42956
00> -30610
01> -42931
00> -30639
01> -42929
00> -30693
01> -42939
00> -30712
01> -42949
00> -30679
01> -42941
00> -30639
01> -42919
00> -30658
01> -42916
00> -30706
01> -42932
00> -30722
01> -42947
00> -30684
01> -42942
00> -30647
01> -42926
00> -30659
01> -42925
00> -30694
01> -42938
00> -30692
01> -42957
00> -30662
01> -42963
00> -30641
01> -42959
00> -30662
01> -42957
00> -30709
01> -42974
00> -30724
01> -42996
00> -30697
01> -43003
00> -30665
01> -42991
00> -30671
01> -42983
00> -30699
01> -42992
00> -30690
01> -42989
00> -30651
01> -42972
00> -30626
01> -42954
00> -30643
01> -42944
00> -30677
01> -42949
00> -30677
01> -42958
00> -30634
01> -42952
00> -30591
01> -42930
00> -30606
01> -42924
00> -30651
01> -42939
00> -30659
01> -42952
00> -30621
01> -42946
00> -30581
01> -42944
00> -30601
01> -42952
00> -30643
01> -42969
00> -30653
01> -42988
00> -30620
01> -42996
00> -30582
01> -42981
00> -30599
01> -42982
00> -30635
01> -43001
00> -30637
01> -43021
00> -30590
01> -43012
00> -30538
01> -42984
00> -30540
01> -42978
00> -30573
01> -42987
00> -30574
01> -42994
00> -30520
01> -42983
00> -30462
01> -42947
00> -30473
01> -42937
00> -30512
01> -42959
00> -30493
01> -42971
00> -30430
01> -42962
00> -30378
01> -42941
00> -30397
01> -42939
00> -30441
01> -42961
00> -30439
01> -42976
00> -30376
01> -42969
00> -30329
01> -42956
00> -30337
01> -42958
00> -30364
01> -42982
00> -30365
01> -43009
00> -30323
01> -43012
00> -30276
01> -43010
00> -30272
01> -43012
00> -30286
01> -43017
00> -30283
01> -43039
00> -30242
01> -43046
00> -30199
01> -43031
00> -30214
01> -43029
00> -30254
01> -43046
00> -30266
01> -43064
00> -30228
01> -43062
00> -30176
01> -43037
00> -30170
01> -43026
00> -30203
01> -43038
00> -30208
01> -43056
00> -30159
01> -43045
00> -30112
01> -43020
00> -30114
01> -43005
00> -30149
01> -43008
00> -30163
01> -43018
00> -30123
01> -43004
00> -30076
01> -42974
00> -30071
01> -42947
00> -30098
01> -42942
00> -30104
01> -42946
00> -30062
01> -42936
00> -30018
01> -42906
00> -30021
01> -42887
00> -30050
01> -42886
00> -30046
01> -42890
00> -30007
01> -42883
00> -29967
01> -42859
00> -29972
01> -42838
00> -30011
01> -42841
00> -30016
01> -42837
00> -29969
01> -42808
00> -29924
01> -42786
00> -29926
01> -42762
00> -29960
01> -42757
00> -29972
01> -42757
00> -29930
01> -42737
00> -29889
01> -42705
00> -29886
01> -42679
00> -29908
01> -42656
00> -29914
01> -42655
00> -29871
01> -42625
00> -29817
01> -42574
00> -29820
01> -42529
00> -29864
01> -42515
00> -29890
01> -42524
00> -29850
01> -42504
00> -29813
01> -42464
00> -29832
01> -42442
00> -29857
01> -42434
00> -29848
01> -42423
00> -29803
01> -42401
00> -29779
01> -42381
00> -29801
01> -42387
00> -29846
01> -42406
00> -29862
01> -42419
00> -29829
01> -42419
00> -29793
01> -42404
00> -29815
01> -42403
00> -29884
01> -42428
00> -29931
01> -42457
00> -29921
01> -42464
00> -29900
01> -42454
00> -29922
01> -42448
00> -29980
01> -42473
00> -30014
01> -42504
00> -30001
01> -42511
00> -29986
01> -42498
00> -30017
01> -42495
00> -30070
01> -42514
00> -30108
01> -42544
00> -30101
01> -42547
00> -30077
01> -42539
00> -30096
01> -42541
00> -30155
01> -42564
00> -30204
01> -42598
00> -30198
01> -42616
00> -30191
01> -42618
00> -30232
01> -42622
00> -30306
01> -42641
00> -30350
01> -42673
00> -30333
01> -42682
00> -30316
01> -42679
00> -30352
01> -42688
00> -30409
01> -42719
00> -30429
01> -42746
00> -30406
01> -42753
00> -30392
01> -42756
00> -30432
01> -42770
00> -30491
01> -42788
00> -30520
01> -42809
00> -30495
01> -42812
00> -30462
01> -42805
00> -30474
01> -42802
00> -30520
01> -42815
00> -30554
01> -42834
00> -30537
01> -42837
00> -30511
01> -42829
00> -30526
01> -42828
00> -30567
01> -42841
00> -30581
01> -42860
00> -30542
01> -42861
00> -30505
01> -42846
00> -30524
01> -42839
00> -30584
01> -42854
00> -30610
01> -42867
00> -30579
01> -42864
00> -30544
01> -42847
00> -30556
01> -42844
00> -30595
01> -42859
00> -30612
01> -42870
00> -30582
01> -42866
00> -30542
01> -42850
00> -30536
01> -42844
00> -30573
01> -42857
00> -30605
01> -42877
00> -30594
01> -42882
00> -30566
01> -42869
00> -30578
01> -42857
00> -30612
01> -42865
00> -30618
01> -42878
00> -30580
01> -42875
00> -30547
01> -42862
00> -30556
01> -42857
00> -30593
01> -42872
00> -30620
01> -42898
00> -30601
01> -42906
00> -30579
01> -42896
00> -30599
01> -42899
00> -30635
01> -42907
00> -30651
01> -42924
00> -30624
01> -42919
00> -30589
01> -42904
00> -30592
01> -42897
00> -30635
01> -42911
00> -30657

00> -30624
01> -42908
00> -30586
01> -42889
00> -30593
01> -42880
00> -30639
01> -42895
00> -30657
01> -42908
00> -30623
01> -42911
00> -30575
01> -42892
00> -30575
01> -42875
00> -30624
01> -42889
00> -30658
01> -42913
00> -30632
01> -42914
00> -30585
01> -42895
00> -30575
01> -42879
00> -30613
01> -42889
00> -30634
01> -42911
00> -30610
01> -42917
00> -30581
01> -42910
00> -30596
01> -42902
00> -30642
01> -42910
00> -30667
01> -42927
00> -30646
01> -42928
00> -30625
01> -42918
00> -30633
01> -42907
00> -30663
01> -42909
00> -30676
01> -42922
00> -30638
01> -42917
00> -30596
01> -42896
00> -30594
01> -42878
00> -30631
01> -42886
00> -30658
01> -42902
00> -30632
01> -42901
00> -30593
01> -42886
00> -30594
01> -42874
00> -30632
01> -42887
00> -30651
01> -42902
00> -30622
01> -42900
00> -30591
01> -42888
00> -30602
01> -42872
00> -30641
01> -42882
00> -30658
01> -42891
00> -30622
01> -42886
00> -30575
01> -42862
00> -30581
01> -42847
00> -30626
01> -42866
00> -30644
01> -42891
00> -30596
01> -42886
00> -30539
01> -42851
00> -30541
01> -42828
00> -30598
01> -42842
00> -30634
01> -42860
00> -30611
01> -42857
00> -30567
01> -42831
00> -30557
01> -42814
00> -30581
01> -42807
00> -30605
01> -42809
00> -30574
01> -42796
00> -30531
01> -42775
00> -30525
01> -42755
00> -30557
01> -42753
00> -30593
01> -42774
00> -30565
01> -42768
00> -30517
01> -42737
00> -30512
01> -42721
00> -30552
01> -42737
00> -30567
01> -42752
00> -30537
01> -42751
00> -30512
01> -42753
00> -30529
01> -42753
00> -30582
01> -42775
00> -30616
01> -42809
00> -30588
01> -42822
00> -30544
01> -42822
00> -30550
01> -42832
00> -30597
01> -42863
00> -30633
01> -42895
00> -30626
01> -42919
00> -30602
01> -42928
00> -30613
01> -42937
00> -30662
01> -42959
00> -30695
01> -42987
00> -30670
01> -43004
00> -30622
01> -42999
00> -30625
01> -42994
00> -30666
01> -43001
00> -30689
01> -43011
00> -30669
01> -43015
00> -30643
01> -43011
00> -30649
01> -43011
00> -30689
01> -43025
00> -30713
01> -43036
00> -30692
01> -43036
00> -30652
01> -43012
00> -30653
01> -42996
00> -30692
01> -43012
00> -30711
01> -43028
00> -30682
01> -43029
00> -30641
01> -43021
00> -30647
01> -43012
00> -30694
01> -43015
00> -30720
01> -43027
00> -30691
01> -43027
00> -30652
01> -43014
00> -30654
01> -43001
00> -30692
01> -43020
00> -30722
01> -43032
00> -30699
01> -43036
00> -30667
01> -43030
00> -30669
01> -43028
00> -30711
01> -43048
00> -30738
01> -43066
00> -30711
01> -43063
00> -30670
01> -43046
00> -30674
01> -43032
00> -30713
01> -43036
00> -30731
01> -43052
00> -30694
01> -43056
00> -30651
01> -43038
00> -30649
01> -43022
00> -30692
01> -43027
00> -30722
01> -43039
00> -30699
01> -43040
00> -30661
01> -43026
00> -30667
01> -43009
00> -30716
01> -43017
00> -30751
01> -43039
00> -30732
01> -43051
00> -30694
01> -43044
00> -30688
01> -43031
00> -30727
01> -43039
00> -30751
01> -43054
00> -30719
01> -43064
00> -30672
01> -43051
00> -30677
01> -43044
00> -30720
01> -43057
00> -30747
01> -43076
00> -30719
01> -43073
00> -30681
01> -43057
00> -30683
01> -43048
00> -30727
01> -43064
00> -30747
01> -43081
00> -30721
01> -43082
00> -30676
01> -43062
00> -30669
01> -43042
00> -30714
01> -43049
00> -30739
01> -43059
00> -30707
01> -43053
00> -30669
01> -43044
00> -30670
01> -43033
00> -30709
01> -43042
00> -30739
01> -43061
00> -30721
01> -43065
00> -30686
01> -43056
00> -30681
01> -43043
00> -30718
01> -43049
00> -30739
01> -43062
00> -30709
01> -43064
00> -30668
01> -43045
00> -30668
01> -43034
00> -30709
01> -43036
00> -30734
01> -43051
00> -30710
01> -43056
00> -30669
01> -43038
00> -30664
01> -43024
00> -30708
01> -43034
00> -30744
01> -43048
00> -30718
01> -43046
00> -30671
01> -43027
00> -30666
01> -43012
00> -30692
01> -43011
00> -30714
01> -43019
00> -30699
01> -43028
00> -30662
01> -43009
00> -30644
01> -42991
00> -30676
01> -42992
00> -30703
01> -43002
00> -30677
01> -42999
00> -30624
01> -42971
00> -30612
01> -42952
00> -30653
01> -42952
00> -30685
01> -42964
00> -30659
01> -42971
00> -30613
01> -42949
00> -30608
01> -42927
00> -30652
01> -42937
00> -30692
01> -42961
00> -30680
01> -42966
00> -30646
01> -42956
00> -30631
01> -42939
00> -30659
01> -42935
00> -30687
01> -42942
00> -30671
01> -42950
00> -30627
01> -42934
00> -30619
01> -42909
00> -30664
01> -42911
00> -30704
01> -42926
00> -30688
01> -42934
00> -30647
01> -42917
00> -30638
01> -42909
00> -30673
01> -42921
00> -30707
01> -42946
00> -30691
01> -42957
00> -30652
01> -42951
00> -30655
01> -42951
00> -30704
01> -42969
00> -30744
01> -42997
00> -30732
01> -43016
00> -30697
01> -43014
00> -30690
01> -43012
00> -30736
01> -43034
00> -30779
01> -43062
00> -30763
01> -43074
00> -30729
01> -43075
00> -30726
01> -43075
00> -30771
01> -43088
00> -30815
01> -43114
00> -30799
01> -43121
00> -30747
01> -43101
00> -30731
01> -43086
00> -30767
01> -43094
00> -30812
01> -43119
00> -30804
01> -43127
00> -30766
01> -43110
00> -30751
01> -43094
00> -30787
01> -43099
00> -30823
01> -43115
00> -30812
01> -43126
00> -30777
01> -43117
00> -30764
01> -43101
00> -30796
01> -43102
00> -30832
01> -43126
00> -30816
01> -43134
00> -30767
01> -43119
00> -30761
01> -43105
00> -30790
01> -43116
00> -30821
01> -43132
00> -30811
01> -43138
00> -30768
01> -43121
00> -30765
01> -43116
00> -30811
01> -43126
00> -30848
01> -43142
00> -30831
01> -43146
00> -30779
01> -43127
00> -30757
01> -43114
00> -30786
01> -43124
00> -30816
01> -43141
00> -30806
01> -43150
00> -30762
01> -43136
00> -30747
01> -43117
00> -30792
01> -43126
00> -30837
01> -43146
00> -30822
01> -43147
00> -30786
01> -43135
00> -30781
01> -43123
00> -30819
01> -43131
00> -30847
01> -43144
00> -30825
01> -43147
00> -30773
01> -43131
00> -30757
01> -43117
00> -30796
01> -43123
00> -30827
01> -43139
00> -30800
01> -43140
00> -30763
01> -43123
00> -30766
01> -43107
00> -30811
01> -43122
00> -30848
01> -43141
00> -30822
01> -43133
00> -30772
01> -43116
00> -30762
01> -43097
00> -30794
01> -43092
00> -30832
01> -43118
00> -30822
01> -43132
00> -30786
01> -43122
00> -30782
01> -43111
00> -30825
01> -43116
00> -30851
01> -43127
00> -30832
01> -43129
00> -30794
01> -43117
00> -30777
01> -43101
00> -30804
01> -43104
00> -30836
01> -43124
00> -30824
01> -43136
00> -30787
01> -43125
00> -30784
01> -43106
00> -30816
01> -43110
00> -30850
01> -43131
00> -30835
01> -43135
00> -30788
01> -43119
00> -30781
01> -43110
00> -30819
01> -43114
00> -30852
01> -43130
00> -30836
01> -43132
00> -30797
01> -43122
00> -30787
01> -43119
00> -30827
01> -43130
00> -30859
01> -43147
00> -30837
01> -43150
00> -30796
01> -43137
00> -30791
01> -43122
00> -30830
01> -43124
00> -30866
01> -43135
00> -30849
01> -43144
00> -30804
01> -43129
00> -30791
01> -43112
00> -30830
01> -43114
00> -30865
01> -43129
00> -30855
01> -43142
00> -30811
01> -43125
00> -30787
01> -43101
00> -30815
01> -43097
00> -30847
01> -43117
00> -30826
01> -43126
00> -30780
01> -43119
00> -30772
01> -43103
00> -30815
01> -43110
00> -30852
01> -43122
00> -30837
01> -43122
00> -30804
01> -43117
00> -30791
01> -43109
00> -30826
01> -43114
00> -30854
01> -43126
00> -30841
01> -43134
00> -30801
01> -43126
00> -30794
01> -43105
00> -30834
01> -43106
00> -30863
01> -43116
00> -30844
01> -43122
00> -30800
01> -43106
00> -30779
01> -43076
00> -30812
01> -43072
00> -30847
01> -43089
00> -30834
01> -43096
00> -30788
01> -43086
00> -30777
01> -43071
00> -30812
01> -43079
00> -30841
01> -43095
00> -30817
01> -43092
00> -30768
01> -43077
00> -30762
01> -43066
00> -30808
01> -43076
00> -30849
01> -43091
00> -30838
01> -43095
00> -30797
01> -43082
00> -30779
01> -43066
00> -30815
01> -43071
00> -30859
01> -43091
00> -30846
01> -43099
00> -30803
01> -43087
00> -30797
01> -43079
00> -30836
01> -43089
00> -30868
01> -43104
00> -30845
01> -43104
00> -30796
01> -43094
00> -30776
01> -43078
00> -30803
01> -43076
00> -30832
01> -43077
00> -30819
01> -43084
00> -30776
01> -43069
00> -30761
01> -43054
00> -30792
01> -43051
00> -30819
01> -43061
00> -30805
01> -43066
00> -30771
01> -43051
00> -30769
01> -43034
00> -30808
01> -43032
00> -30834
01> -43038
00> -30805
01> -43035
00> -30758
01> -43022
00> -30751
01> -43010
00> -30791
01> -43014
00> -30831
01> -43027
00> -30824
01> -43030
00> -30767
01> -43010
00> -30732
01> -42982
00> -30754
01> -42980
00> -30796
01> -42992
00> -30790
01> -42992
00> -30747
01> -42972
00> -30733
01> -42962
00> -30767
01> -42972
00> -30799
01> -42996
00> -30788
01> -43016
00> -30749
01> -43013
00> -30734
01> -43007
00> -30772
01> -43019
00> -30809
01> -43042
00> -30794
01> -43050
00> -30747
01> -43041
00> -30726
01> -43029
00> -30771
01> -43044
00> -30818
01> -43069
00> -30817
01> -43087
00> -30782
01> -43090
00> -30765
01> -43081
00> -30806
01> -43096
00> -30852
01> -43119
00> -30845
01> -43126
00> -30807
01> -43114
00> -30792
01> -43110
00> -30827
01> -43123
00> -30861
01> -43141
00> -30852
01> -43153
00> -30811
01> -43140
00> -30798
01> -43125
00> -30834
01> -43130
00> -30871
01> -43152
00> -30862
01> -43162
00> -30826
01> -43152
00> -30811
01> -43141
00> -30841
01> -43148
00> -30876
01> -43164
00> -30873
01> -43176
00> -30839
01> -43176
00> -30828
01> -43171
00> -30861
01> -43173
00> -30899
01> -43182
00> -30894
01> -43187
00> -30863
01> -43184
00> -30842
01> -43171
00> -30864
01> -43171
00> -30895
01> -43176
00> -30895
01> -43180
00> -30857
01> -43171
00> -30837
01> -43156
00> -30864
01> -43156
00> -30894
01> -43170
00> -30881
01> -43177
00> -30831
01> -43169
00> -30804
01> -43149
00> -30824
01> -43144
00> -30862
01> -43154
00> -30869
01> -43159
00> -30837
01> -43154
00> -30822
01> -43145
00> -30856
01> -43146
00> -30894
01> -43163
00> -30886
01> -43167
00> -30851
01> -43160
00> -30840
01> -43154
00> -30875
01> -43158
00> -30911
01> -43169
00> -30907
01> -43181
00> -30866
01> -43169
00> -30839
01> -43143
00> -30866
01> -43144
00> -30894
01> -43157
00> -30884
01> -43161
00> -30840
01> -43149
00> -30819
01> -43134
00> -30850
01> -43136
00> -30890
01> -43160
00> -30881
01> -43167
00> -30834
01> -43150
00> -30812
01> -43131
00> -30835
01> -43136
00> -30865
01> -43147
00> -30859
01> -43155
00> -30819
01> -43143
00> -30792
01> -43124
00> -30822
01> -43121
00> -30864
01> -43137
00> -30871
01> -43154
00> -30837
01> -43151
00> -30812
01> -43132
00> -30834
01> -43126
00> -30877
01> -43138
00> -30877
01> -43147
00> -30843
01> -43139
00> -30828
01> -43129
00> -30848
01> -43131
00> -30876
01> -43139
00> -30874
01> -43141
00> -30830
01> -43123
00> -30806
01> -43107
00> -30836
01> -43111
00> -30876
01> -43129
00> -30874
01> -43141
00> -30846
01> -43133
00> -30828
01> -43114
00> -30852
01> -43113
00> -30887
01> -43128
00> -30886
01> -43142
00> -30850
01> -43144
00> -30823
01> -43131
00> -30844
01> -43127
00> -30874
01> -43136
00> -30861
01> -43136
00> -30812
01> -43119
00> -30786
01> -43104
00> -30818
01> -43106
00> -30863
01> -43120
00> -30871
01> -43137
00> -30834
01> -43127
00> -30807
01> -43111
00> -30837
01> -43118
00> -30876
01> -43133
00> -30873
01> -43141
00> -30835
01> -43133
00> -30800
01> -43109
00> -30815
01> -43102
00> -30861
01> -43119
00> -30867
01> -43132
00> -30837
01> -43122
00> -30813
01> -43106
00> -30833
01> -43111
00> -30867
01> -43125
00> -30872
01> -43132
00> -30843
01> -43127
00> -30826
01> -43112
00> -30852
01> -43121
00> -30889
01> -43144
00> -30881
01> -43158
00> -30825
01> -43148
00> -30787
01> -43127
00> -30808
01> -43124
00> -30843
01> -43127
00> -30847
01> -43144
00> -30817
01> -43131
00> -30809
01> -43109
00> -30847
01> -43107
00> -30885
01> -43118
00> -30873
01> -43121
00> -30816
01> -43104
00> -30781
01> -43086
00> -30817
01> -43094
00> -30862
01> -43112
00> -30856
01> -43114
00> -30817
01> -43104
00> -30794
01> -43089
00> -30816
01> -43081
00> -30862
01> -43092
00> -30868
01> -43107
00> -30827
01> -43097
00> -30787
01> -43085
00> -30799
01> -43082
00> -30838
01> -43097
00> -30846
01> -43111
00> -30819
01> -43109
00> -30794
01> -43090
00> -30816
01> -43077
00> -30852
01> -43082
00> -30852
01> -43094
00> -30811
01> -43079
00> -30785
01> -43053
00> -30803
01> -43053
00> -30844
01> -43069
00> -30847
01> -43087
00> -30801
01> -43077
00> -30765
01> -43057
00> -30786
01> -43056
00> -30832
01> -43071
00> -30839
01> -43085
00> -30802
01> -43082
00> -30780
01> -43074
00> -30802
01> -43074
00> -30832
01> -43079
00> -30836
01> -43090
00> -30802
01> -43082
00> -30780
01> -43066
00> -30807
01> -43067
00> -30844
01> -43075
00> -30836
01> -43084
00> -30799
01> -43076
00> -30771
01> -43061
00> -30796
01> -43060
00> -30833
01> -43071
00> -30833
01> -43070
00> -30786
01> -43044
00> -30757
01> -43023
00> -30788
01> -43035
00> -30828
01> -43050
00> -30822
01> -43054
00> -30785
01> -43051
00> -30746
01> -43039
00> -30758
01> -43039
00> -30790
01> -43054
00> -30797
01> -43069
00> -30764
01> -43061
00> -30738
01> -43035
00> -30764
01> -43031
00> -30814
01> -43046
00> -30821
01> -43052
00> -30776
01> -43036
00> -30744
01> -43021
00> -30767
01> -43016
00> -30812
01> -43029
00> -30821
01> -43047
00> -30781
01> -43036
00> -30746
01> -43017
00> -30770
01> -43011
00> -30812
01> -43020
00> -30809
01> -43023
00> -30759
01> -42999
00> -30722
01> -42973
00> -30748
01> -42967
00> -30789
01> -42977
00> -30792
01> -42989
00> -30755
01> -42983
00> -30728
01> -42969
00> -30743
01> -42970
00> -30781
01> -42992
00> -30782
01> -43017
00> -30732
01> -43011
00> -30701
01> -43009
00> -30729
01> -43019
00> -30783
01> -43047
00> -30794
01> -43068
00> -30758
01> -43074
00> -30738
01> -43069
00> -30774
01> -43084
00> -30824
01> -43119
00> -30834
01> -43155
00> -30806
01> -43171
00> -30778
01> -43164
00> -30801
01> -43169
00> -30846
01> -43197
00> -30860
01> -43220
00> -30827
01> -43215
00> -30797
01> -43199
00> -30817
01> -43196
00> -30851
01> -43207
00> -30852
01> -43224
00> -30812
01> -43224
00> -30788
01> -43211
00> -30827
01> -43216
00> -30890
01> -43236
00> -30904
01> -43254
00> -30869
01> -43249
00> -30841
01> -43231
00> -30859
01> -43231
00> -30892
01> -43247
00> -30893
01> -43262
00> -30851
01> -43246
00> -30818
01> -43219
00> -30843
01> -43208
00> -30882
01> -43221
00> -30887
01> -43239
00> -30842
01> -43232
00> -30801
01> -43215
00> -30824
01> -43205
00> -30872
01> -43221
00> -30884
01> -43234
00> -30855
01> -43223
00> -30829
01> -43204
00> -30857
01> -43204
00> -30896
01> -43219
00> -30902
01> -43233
00> -30857
01> -43229
00> -30814
01> -43213
00> -30835
01> -43217
00> -30879
01> -43234
00> -30891
01> -43249
00> -30854
01> -43247
00> -30824
01> -43231
00> -30846
01> -43224
00> -30887
01> -43232
00> -30891
01> -43239
00> -30853
01> -43224
00> -30827
01> -43204
00> -30841
01> -43199
00> -30880
01> -43216
00> -30884
01> -43236
00> -30856
01> -43233
00> -30835
01> -43222
00> -30856
01> -43216
00> -30902
01> -43232
00> -30908
01> -43245
00> -30867
01> -43235
00> -30829
01> -43222
00> -30851
01> -43222
00> -30887
01> -43234
00> -30891
01> -43245
00> -30852
01> -43243
00> -30827
01> -43227
00> -30849
01> -43224
00> -30891
01> -43233
00> -30901
01> -43251
00> -30867
01> -43250
00> -30834
01> -43229
00> -30849
01> -43216
00> -30887
01> -43229
00> -30891
01> -43247
00> -30852
01> -43239
00> -30812
01> -43220
00> -30824
01> -43202
00> -30866
01> -43207
00> -30886
01> -43232
00> -30856
01> -43231
00> -30817
01> -43213
00> -30834
01> -43210
00> -30878
01> -43226
00> -30896
01> -43243
00> -30855
01> -43242
00> -30817
01> -43227
00> -30840
01> -43225
00> -30892
01> -43246
00> -30899
01> -43261
00> -30860
01> -43252
00> -30831
01> -43239
00> -30851
01> -43234
00> -30897
01> -43251
00> -30899
01> -43256
00> -30857
01> -43242
00> -30834
01> -43235
00> -30851
01> -43232
00> -30890
01> -43234
00> -30911
01> -43247
00> -30885
01> -43246
00> -30856
01> -43230
00> -30865
01> -43216
00> -30899
01> -43221
00> -30901
01> -43227
00> -30865
01> -43215
00> -30837
01> -43199
00> -30851
01> -43190
00> -30882
01> -43200
00> -30899
01> -43222
00> -30868
01> -43225
00> -30839
01> -43214
00> -30859
01> -43209
00> -30900
01> -43218
00> -30911
01> -43232
00> -30881
01> -43231
00> -30852
01> -43216
00> -30862
01> -43210
00> -30892
01> -43212
00> -30907
01> -43229
00> -30872
01> -43226
00> -30841
01> -43208
00> -30855
01> -43204
00> -30894
01> -43207
00> -30898
01> -43212
00> -30856
01> -43200
00> -30814
01> -43175
00> -30839
01> -43165
00> -30883
01> -43162
00> -30889
01> -43163
00> -30848
01> -43147
00> -30809
01> -43122
00> -30822
01> -43119
00> -30852
01> -43133
00> -30856
01> -43137
00> -30821
01> -43127
00> -30794
01> -43109
00> -30810
01> -43100
00> -30841
01> -43104
00> -30852
01> -43117
00> -30824
01> -43125
00> -30789
01> -43111
00> -30794
01> -43097
00> -30828
01> -43108
00> -30836
01> -43121
00> -30789
01> -43117
00> -30753
01> -43102
00> -30773
01> -43102
00> -30812
01> -43117
00> -30822
01> -43127
00> -30787
01> -43123
00> -30748
01> -43116
00> -30754
01> -43120
00> -30784
01> -43141
00> -30806
01> -43162
00> -30786
01> -43159
00> -30757
01> -43149
00> -30779
01> -43154
00> -30826
01> -43174
00> -30841
01> -43196
00> -30817
01> -43209
00> -30796
01> -43211
00> -30819
01> -43223
00> -30873
01> -43250
00> -30904
01> -43282
00> -30874
01> -43290
00> -30831
01> -43271
00> -30831
01> -43267
00> -30871
01> -43282
00> -30891
01> -43306
00> -30859
01> -43311
00> -30809
01> -43302
00> -30814
01> -43293
00> -30843
01> -43293
00> -30861
01> -43305
00> -30844
01> -43301
00> -30822
01> -43283
00> -30847
01> -43280
00> -30891
01> -43293
00> -30904
01> -43302
00> -30864
01> -43291
00> -30827
01> -43279
00> -30837
01> -43278
00> -30876
01> -43296
00> -30896
01> -43319
00> -30864
01> -43312
00> -30823
01> -43287
00> -30835
01> -43276
00> -30890
01> -43297
00> -30923
01> -43320
00> -30897
01> -43320
00> -30858
01> -43305
00> -30866
01> -43301
00> -30901
01> -43307
00> -30910
01> -43309
00> -30882
01> -43308
00> -30849
01> -43295
00> -30862
01> -43287
00> -30902
01> -43301
00> -30916
01> -43317
00> -30882
01> -43311
00> -30839
01> -43295
00> -30852
01> -43284
00> -30897
01> -43289
00> -30913
01> -43305
00> -30877
01> -43302
00> -30840
01> -43288
00> -30852
01> -43282
00> -30897
01> -43294
00> -30911
01> -43306
00> -30871
01> -43304
00> -30832
01> -43291
00> -30843
01> -43280
00> -30884
01> -43291
00> -30897
01> -43312
00> -30874
01> -43308
00> -30840
01> -43292
00> -30848
01> -43286
00> -30886
01> -43291
00> -30897
01> -43301
00> -30856
01> -43297
00> -30812
01> -43282
00> -30822
01> -43270
00> -30871
01> -43280
00> -30897
01> -43295
00> -30877
01> -43295
00> -30839
01> -43282
00> -30854
01> -43266
00> -30900
01> -43282
00> -30919
01> -43300
00> -30882
01> -43301
00> -30839
01> -43289
00> -30839
01> -43270
00> -30876
01> -43279
00> -30901
01> -43308
00> -30877
01> -43314
00> -30834
01> -43294
00> -30836
01> -43287
00> -30879
01> -43299
00> -30894
01> -43312
00> -30870
01> -43304
00> -30844
01> -43278
00> -30862
01> -43267
00> -30906
01> -43277
00> -30924
01> -43294
00> -30890
01> -43296
00> -30836
01> -43269
00> -30832
01> -43254
00> -30871
01> -43265
00> -30901
01> -43281
00> -30869
01> -43275
00> -30834
01> -43252
00> -30851
01> -43247
00> -30889
01> -43257
00> -30901
01> -43276
00> -30867
01> -43274
00> -30822
01> -43253
00> -30825
01> -43232
00> -30865
01> -43237
00> -30888
01> -43262
00> -30857
01> -43261
00> -30817
01> -43245
00> -30823
01> -43239
00> -30861
01> -43249
00> -30872
01> -43257
00> -30850
01> -43257
00> -30822
01> -43239
00> -30837
01> -43226
00> -30867
01> -43227
00> -30886
01> -43246
00> -30861
01> -43244
00> -30828
01> -43229
00> -30832
01> -43221
00> -30870
01> -43227
00> -30897
01> -43240
00> -30861
01> -43229
00> -30804
01> -43200
00> -30787
01> -43181
00> -30829
01> -43191
00> -30856
01> -43213
00> -30839
01> -43216
00> -30807
01> -43198
00> -30813
01> -43187
00> -30862
01> -43194
00> -30882
01> -43217
00> -30851
01> -43219
00> -30823
01> -43212
00> -30836
01> -43207
00> -30875
01> -43217
00> -30886
01> -43229
00> -30859
01> -43229
00> -30820
01> -43215
00> -30822
01> -43207
00> -30857
01> -43208
00> -30882
01> -43217
00> -30857
01> -43210
00> -30822
01> -43189
00> -30825
01> -43173
00> -30862
01> -43182
00> -30876
01> -43197
00> -30844
01> -43193
00> -30807
01> -43175
00> -30809
01> -43166
00> -30842
01> -43176
00> -30867
01> -43199
00> -30850
01> -43207
00> -30816
01> -43197
00> -30819
01> -43190
00> -30858
01> -43202
00> -30879
01> -43212
00> -30853
01> -43210
00> -30816
01> -43199
00> -30812
01> -43187
00> -30837
01> -43181
00> -30869
01> -43199
00> -30856
01> -43207
00> -30817
01> -43194
00> -30817
01> -43184
00> -30854
01> -43191
00> -30875
01> -43204
00> -30849
01> -43206
00> -30804
01> -43191
00> -30800
01> -43181
00> -30848
01> -43192
00> -30877
01> -43211
00> -30847
01> -43201
00> -30806
01> -43189
00> -30812
01> -43187
00> -30857
01> -43196
00> -30883
01> -43217
00> -30859
01> -43222
00> -30824
01> -43214
00> -30824
01> -43201
00> -30859
01> -43211
00> -30879
01> -43228
00> -30853
01> -43229
00> -30817
01> -43217
00> -30817
01> -43211
00> -30848
01> -43212
00> -30859
01> -43220
00> -30831
01> -43216
00> -30798
01> -43197
00> -30809
01> -43184
00> -30854
01> -43188
00> -30876
01> -43196
00> -30846
01> -43194
00> -30802
01> -43174
00> -30799
01> -43160
00> -30836
01> -43158
00> -30861
01> -43167
00> -30838
01> -43171
00> -30791
01> -43157
00> -30776
01> -43138
00> -30810
01> -43143
00> -30837
01> -43157
00> -30819
01> -43157
00> -30780
01> -43137
00> -30774
01> -43122
00> -30809
01> -43124
00> -30834
01> -43137
00> -30821
01> -43142
00> -30777
01> -43127
00> -30768
01> -43110
00> -30799
01> -43102
00> -30827
01> -43114
00> -30808
01> -43114
00> -30767
01> -43097
00> -30773
01> -43089
00> -30819
01> -43104
00> -30853
01> -43123
00> -30829
01> -43123
00> -30790
01> -43116
00> -30792
01> -43118
00> -30837
01> -43139
00> -30874
01> -43161
00> -30853
01> -43172
00> -30814
01> -43174
00> -30814
01> -43176
00> -30849
01> -43186
00> -30884
01> -43211
00> -30868
01> -43223
00> -30835
01> -43222
00> -30844
01> -43217
00> -30892
01> -43231
00> -30924
01> -43255
00> -30899
01> -43264
00> -30859
01> -43256
00> -30855
01> -43243
00> -30889
01> -43249
00> -30924
01> -43270
00> -30905
01> -43272
00> -30877
01> -43260
00> -30877
01> -43251
00> -30905
01> -43261
00> -30922
01> -43277
00> -30907
01> -43276
00> -30877
01> -43265
00> -30881
01> -43262
00> -30913
01> -43278
00> -30924
01> -43294
00> -30889
01> -43292
00> -30854
01> -43281
00> -30869
01> -43281
00> -30926
01> -43296
00> -30966
01> -43324
00> -30945
01> -43328
00> -30906
01> -43313
00> -30904
01> -43301
00> -30943
01> -43307
00> -30964
01> -43320
00> -30927
01> -43314
00> -30881
01> -43300
00> -30882
01> -43290
00> -30934
01> -43297
00> -30964
01> -43311
00> -30934
01> -43312
00> -30894
01> -43292
00> -30896
01> -43283
00> -30933
01> -43297
00> -30954
01> -43316
00> -30925
01> -43316
00> -30885
01> -43299
00> -30889
01> -43286
00> -30929
01> -43302
00> -30960
01> -43326
00> -30938
01> -43328
00> -30892
01> -43311
00> -30886
01> -43294
00> -30929
01> -43304
00> -30957
01> -43324
00> -30932
01> -43327
00> -30886
01> -43311
00> -30878
01> -43302
00> -30919
01> -43312
00> -30953
01> -43334
00> -30937
01> -43342
00> -30893
01> -43333
00> -30886
01> -43320
00> -30929
01> -43321
00> -30957
01> -43336
00> -30940
01> -43337
00> -30897
01> -43322
00> -30894
01> -43309
00> -30934
01> -43317
00> -30959
01> -43334
00> -30933
01> -43329
00> -30886
01> -43316
00> -30889
01> -43307
00> -30932
01> -43312
00> -30965
01> -43326
00> -30947
01> -43337
00> -30907
01> -43331
00> -30905
01> -43316
00> -30945
01> -43322
00> -30974
01> -43339
00> -30946
01> -43338
00> -30897
01> -43321
00> -30884
01> -43299
00> -30923
01> -43308
00> -30958
01> -43332
00> -30934
01> -43339
00> -30890
01> -43321
00> -30889
01> -43302
00> -30922
01> -43304
00> -30953
01> -43316
00> -30930
01> -43312
00> -30884
01> -43299
00> -30871
01> -43290
00> -30912
01> -43300
00> -30948
01> -43319
00> -30931
01> -43321
00> -30897
01> -43314
00> -30901
01> -43306
00> -30943
01> -43314
00> -30972
01> -43331
00> -30954
01> -43339
00> -30912
01> -43327
00> -30907
01> -43316
00> -30946
01> -43317
00> -30971
01> -43333
00> -30947
01> -43343
00> -30891
01> -43331
00> -30891
01> -43321
00> -30944
01> -43324
00> -30974
01> -43326
00> -30952
01> -43328
00> -30908
01> -43312
00> -30902
01> -43292
00> -30938
01> -43293
00> -30959
01> -43306
00> -30926
01> -43301
00> -30880
01> -43289
00> -30882
01> -43279
00> -30928
01> -43293
00> -30954
01> -43314
00> -30927
01> -43314
00> -30889
01> -43296
00> -30889
01> -43277
00> -30929
01> -43284
00> -30954
01> -43301
00> -30935
01> -43307
00> -30890
01> -43294
00> -30884
01> -43283
00> -30923
01> -43291
00> -30957
01> -43309
00> -30928
01> -43314
00> -30885
01> -43306
00> -30881
01> -43292
00> -30915
01> -43297
00> -30947
01> -43306
00> -30922
01> -43298
00> -30881
01> -43277
00> -30877
01> -43251
00> -30919
01> -43249
00> -30948
01> -43256
00> -30916
01> -43251
00> -30868
01> -43224
00> -30857
01> -43197
00> -30887
01> -43188
00> -30907
01> -43196
00> -30877
01> -43191
00> -30829
01> -43168
00> -30821
01> -43149
00> -30857
01> -43156
00> -30885
01> -43175
00> -30865
01> -43174
00> -30827
01> -43162
00> -30821
01> -43154
00> -30859
01> -43165
00> -30889
01> -43182
00> -30874
01> -43185
00> -30840
01> -43181
00> -30834
01> -43169
00> -30877
01> -43185
00> -30919
01> -43215
00> -30906
01> -43224
00> -30872
01> -43217
00> -30869
01> -43213
00> -30906
01> -43229
00> -30935
01> -43257
00> -30924
01> -43272
00> -30887
01> -43267
00> -30879
01> -43260
00> -30919
01> -43276
00> -30958
01> -43301
00> -30941
01> -43309
00> -30900
01> -43289
00> -30894
01> -43277
00> -30932
01> -43290
00> -30963
01> -43301
00> -30941
01> -43298
00> -30897
01> -43279
00> -30891
01> -43266
00> -30931
01> -43273
00> -30961
01> -43293
00> -30943
01> -43299
00> -30901
01> -43277
00> -30887
01> -43259
00> -30922
01> -43259
00> -30951
01> -43272
00> -30932
01> -43279
00> -30892
01> -43265
00> -30883
01> -43253
00> -30912
01> -43260
00> -30942
01> -43280
00> -30929
01> -43291
00> -30887
01> -43279
00> -30877
01> -43265
00> -30918
01> -43276
00> -30953
01> -43301
00> -30939
01> -43306
00> -30899
01> -43282
00> -30889
01> -43267
00> -30921
01> -43272
00> -30950
01> -43289
00> -30934
01> -43297
00> -30887
01> -43280
00> -30871
01> -43265
00> -30911
01> -43267
00> -30951
01> -43281
00> -30935
01> -43283
00> -30890
01> -43266
00> -30873
01> -43256
00> -30906
01> -43264
00> -30939
01> -43279
00> -30929
01> -43287
00> -30896
01> -43278
00> -30883
01> -43267
00> -30914
01> -43266
00> -30952
01> -43288
00> -30937
01> -43302
00> -30894
01> -43295
00> -30881
01> -43281
00> -30914
01> -43286
00> -30943
01> -43296
00> -30921
01> -43293
00> -30881
01> -43283
00> -30877
01> -43282
00> -30922
01> -43296
00> -30962
01> -43305
00> -30949
01> -43306
00> -30896
01> -43284
00> -30879
01> -43264
00> -30917
01> -43268
00> -30947
01> -43282
00> -30934
01> -43289
00> -30891
01> -43269
00> -30877
01> -43249
00> -30912
01> -43251
00> -30939
01> -43261
00> -30922
01> -43265
00> -30881
01> -43248
00> -30867
01> -43232
00> -30904
01> -43246
00> -30933
01> -43263
00> -30919
01> -43264
00> -30892
01> -43254
00> -30891
01> -43242
00> -30932
01> -43249
00> -30958
01> -43261
00> -30932
01> -43259
00> -30887
01> -43247
00> -30883
01> -43237
00> -30915
01> -43246
00> -30941
01> -43267
00> -30924
01> -43273
00> -30886
01> -43256
00> -30881
01> -43247
00> -30917
01> -43251
00> -30951
01> -43261
00> -30937
01> -43266
00> -30897
01> -43257
00> -30886
01> -43244
00> -30917
01> -43248
00> -30942
01> -43261
00> -30924
01> -43264
00> -30886
01> -43254
00> -30879
01> -43246
00> -30916
01> -43252
00> -30941
01> -43265
00> -30917
01> -43262
00> -30873
01> -43242
00> -30864
01> -43234
00> -30901
01> -43249
00> -30934
01> -43269
00> -30914
01> -43271
00> -30874
01> -43265
00> -30858
01> -43252
00> -30889
01> -43249
00> -30931
01> -43264
00> -30924
01> -43264
00> -30881
01> -43245
00> -30862
01> -43224
00> -30888
01> -43218
00> -30918
01> -43225
00> -30899
01> -43225
00> -30853
01> -43206
00> -30835
01> -43184
00> -30872
01> -43197
00> -30917
01> -43215
00> -30918
01> -43224
00> -30879
01> -43219
00> -30860
01> -43211
00> -30892
01> -43221
00> -30934
01> -43246
00> -30917
01> -43254
00> -30871
01> -43252
00> -30861
01> -43243
00> -30886
01> -43246
00> -30919
01> -43264
00> -30909
01> -43284
00> -30866
01> -43275
00> -30846
01> -43258
00> -30874
01> -43264
00> -30907
01> -43281
00> -30893
01> -43291
00> -30856
01> -43279
00> -30846
01> -43259
00> -30874
01> -43256
00> -30907
01> -43274
00> -30890
01> -43281
00> -30853
01> -43276
00> -30837
01> -43264
00> -30874
01> -43267
00> -30919
01> -43286
00> -30901
01> -43288
00> -30851
01> -43270
00> -30838
01> -43254
00> -30871
01> -43263
00> -30913
01> -43285
00> -30912
01> -43294
00> -30869
01> -43286
00> -30843
01> -43267
00> -30864
01> -43268
00> -30884
01> -43282
00> -30875
01> -43292
00> -30845
01> -43276
00> -30841
01> -43257
00> -30879
01> -43266
00> -30915
01> -43294
00> -30901
01> -43307
00> -30854
01> -43296
00> -30842
01> -43271
00> -30873
01> -43264
00> -30899
01> -43275
00> -30892
01> -43279
00> -30854
01> -43264
00> -30840
01> -43257
00> -30881
01> -43262
00> -30919
01> -43284
00> -30905
01> -43292
00> -30852
01> -43279
00> -30827
01> -43254
00> -30864
01> -43259
00> -30902
01> -43279
00> -30895
01> -43287
00> -30851
01> -43277
00> -30831
01> -43262
00> -30869
01> -43271
00> -30909
01> -43292
00> -30894
01> -43299
00> -30850
01> -43284
00> -30827
01> -43260
00> -30850
01> -43259
00> -30879
01> -43265
00> -30867
01> -43269
00> -30834
01> -43262
00> -30831
01> -43257
00> -30871
01> -43266
00> -30906
01> -43279
00> -30897
01> -43281
00> -30859
01> -43266
00> -30847
01> -43250
00> -30874
01> -43252
00> -30904
01> -43264
00> -30891
01> -43273
00> -30852
01> -43261
00> -30838
01> -43246
00> -30871
01> -43257
00> -30908
01> -43273
00> -30893
01> -43281
00> -30850
01> -43276
00> -30827
01> -43258
00> -30859
01> -43257
00> -30894
01> -43265
00> -30888
01> -43272
00> -30851
01> -43262
00> -30831
01> -43248
00> -30864
01> -43250
00> -30891
01> -43262
00> -30869
01> -43262
00> -30828
01> -43244
00> -30821
01> -43220
00> -30863
01> -43220
00> -30901
01> -43230
00> -30882
01> -43230
00> -30841
01> -43220
00> -30823
01> -43204
00> -30853
01> -43201
00> -30890
01> -43212
00> -30877
01> -43211
00> -30826
01> -43191
00> -30800
01> -43174
00> -30830
01> -43174
00> -30861
01> -43189
00> -30854
01> -43193
00> -30816
01> -43176
00> -30789
01> -43151
00> -30810
01> -43151
00> -30844
01> -43162
00> -30832
01> -43166
00> -30792
01> -43154
00> -30782
01> -43145
00> -30816
01> -43156
00> -30852
01> -43178
00> -30843
01> -43194
00> -30806
01> -43192
00> -30788
01> -43183
00> -30816
01> -43192
00> -30851
01> -43211
00> -30845
01> -43223
00> -30809
01> -43209
00> -30794
01> -43201
00> -30832
01> -43212
00> -30871
01> -43226
00> -30862
01> -43229
00> -30817
01> -43216
00> -30794
01> -43204
00> -30824
01> -43213
00> -30864
01> -43232
00> -30853
01> -43234
00> -30815
01> -43231
00> -30794
01> -43214
00> -30834
01> -43217
00> -30870
01> -43237
00> -30869
01> -43257
00> -30836
01> -43256
00> -30815
01> -43241
00> -30854
01> -43244
00> -30895
01> -43260
00> -30885
01> -43264
00> -30838
01> -43259
00> -30814
01> -43247
00> -30847
01> -43255
00> -30879
01> -43266
00> -30869
01> -43266
00> -30829
01> -43249
00> -30811
01> -43231
00> -30847
01> -43234
00> -30891
01> -43251
00> -30897
01> -43264
00> -30862
01> -43256
00> -30839
01> -43242
00> -30871
01> -43239
00> -30904
01> -43248
00> -30897
01> -43256
00> -30858
01> -43246
00> -30846
01> -43237
00> -30879
01> -43239
00> -30909
01> -43249
00> -30899
01> -43257
00> -30861
01> -43251
00> -30841
01> -43246
00> -30864
01> -43256
00> -30900
01> -43277
00> -30894
01> -43296
00> -30860
01> -43291
00> -30842
01> -43280
00> -30874
01> -43291
00> -30903
01> -43309
00> -30896
01> -43320
00> -30858
01> -43306
00> -30842
01> -43291
00> -30865
01> -43281
00> -30902
01> -43287
00> -30903
01> -43297
00> -30872
01> -43295
00> -30854
01> -43276
00> -30879
01> -43272
00> -30917
01> -43291
00> -30911
01> -43297
00> -30861
01> -43282
00> -30840
01> -43270
00> -30862
01> -43266
00> -30900
01> -43282
00> -30897
01> -43293
00> -30859
01> -43282
00> -30838
01> -43267
00> -30872
01> -43271
00> -30913
01> -43297
00> -30911
01> -43312
00> -30869
01> -43311
00> -30852
01> -43298
00> -30892
01> -43302
00> -30929
01> -43320
00> -30912
01> -43321
00> -30872
01> -43302
00> -30855
01> -43291
00> -30884
01> -43294
00> -30924
01> -43305
00> -30914
01> -43311
00> -30868
01> -43296
00> -30844
01> -43280
00> -30874
01> -43286
00> -30921
01> -43299
00> -30928
01> -43316
00> -30894
01> -43302
00> -30866
01> -43288
00> -30882
01> -43287
00> -30910
01> -43296
00> -30912
01> -43304
00> -30886
01> -43297
00> -30862
01> -43280
00> -30886
01> -43279
00> -30928
01> -43301
00> -30931
01> -43310
00> -30894
01> -43297
00> -30866
01> -43278
00> -30897
01> -43282
00> -30931
01> -43294
00> -30917
01> -43301
00> -30873
01> -43296
00> -30851
01> -43279
00> -30888
01> -43282
00> -30932
01> -43301
00> -30931
01> -43320
00> -30889
01> -43306
00> -30866
01> -43289
00> -30891
01> -43289
00> -30915
01> -43291
00> -30911
01> -43297
00> -30877
01> -43283
00> -30864
01> -43271
00> -30889
01> -43267
00> -30916
01> -43276
00> -30909
01> -43289
00> -30874
01> -43282
00> -30856
01> -43273
00> -30887
01> -43276
00> -30933
01> -43292
00> -30935
01> -43307
00> -30889
01> -43295
00> -30866
01> -43281
00> -30899
01> -43277
00> -30936
01> -43286
00> -30925
01> -43291
00> -30888
01> -43281
00> -30867
01> -43272
00> -30897
01> -43276
00> -30928
01> -43289
00> -30918
01> -43297
00> -30866
01> -43277
00> -30846
01> -43255
00> -30868
01> -43246
00> -30912
01> -43261
00> -30911
01> -43270
00> -30867
01> -43254
00> -30839
01> -43236
00> -30867
01> -43231
00> -30899
01> -43241
00> -30884
01> -43245
00> -30837
01> -43236
00> -30809
01> -43215
00> -30832
01> -43206
00> -30869
01> -43217
00> -30876
01> -43231
00> -30845
01> -43219
00> -30827
01> -43202
00> -30857
01> -43203
00> -30888
01> -43214
00> -30878
01> -43226
00> -30843
01> -43211
00> -30831
01> -43191
00> -30859
01> -43186
00> -30899
01> -43199
00> -30902
01> -43216
00> -30858
01> -43200
00> -30831
01> -43179
00> -30852
01> -43181
00> -30881
01> -43189
00> -30866
01> -43184
00> -30822
01> -43169
00> -30794
01> -43150
00> -30821
01> -43149
00> -30870
01> -43164
00> -30879
01> -43177
00> -30841
01> -43162
00> -30816
01> -43139
00> -30842
01> -43142
00> -30883
01> -43157
00> -30895
01> -43177
00> -30862
01> -43177
00> -30834
01> -43174
00> -30866
01> -43181
00> -30899
01> -43199
00> -30894
01> -43212
00> -30854
01> -43208
00> -30832
01> -43197
00> -30852
01> -43200
00> -30888
01> -43216
00> -30894
01> -43236
00> -30859
01> -43227
00> -30842
01> -43224
00> -30872
01> -43232
00> -30910
01> -43252
00> -30909
01> -43265
00> -30869
01> -43257
00> -30842
01> -43236
00> -30872
01> -43235
00> -30916
01> -43246
00> -30911
01> -43260
00> -30867
01> -43261
00> -30837
01> -43253
00> -30862
01> -43257
00> -30910
01> -43274
00> -30918
01> -43288
00> -30879
01> -43275
00> -30851
01> -43258
00> -30881
01> -43259
00> -30919
01> -43273
00> -30916
01> -43286
00> -30876
01> -43282
00> -30842
01> -43267
00> -30852
01> -43257
00> -30898
01> -43270
00> -30916
01> -43287
00> -30879
01> -43280
00> -30857
01> -43262
00> -30888
01> -43257
00> -30927
01> -43269
00> -30924
01> -43272
00> -30883
01> -43259
00> -30854
01> -43243
00> -30883
01> -43249
00> -30921
01> -43264
00> -30918
01> -43273
00> -30882
01> -43276
00> -30853
01> -43266
00> -30881
01> -43272
00> -30920
01> -43289
00> -30926
01> -43307
00> -30889
01> -43295
00> -30857
01> -43275
00> -30878
01> -43266
00> -30921
01> -43278
00> -30924
01> -43290
00> -30879
01> -43278
00> -30847
01> -43259
00> -30877
01> -43257
00> -30917
01> -43275
00> -30919
01> -43290
00> -30875
01> -43277
00> -30836
01> -43254
00> -30854
01> -43248
00> -30903
01> -43266
00> -30909
01> -43274
00> -30875
01> -43266
00> -30847
01> -43252
00> -30865
01> -43247
00> -30902
01> -43256
00> -30911
01> -43274
00> -30877
01> -43277
00> -30855
01> -43262
00> -30883
01> -43259
00> -30926
01> -43275
00> -30928
01> -43295
00> -30889
01> -43293
00> -30857
01> -43276
00> -30889
01> -43276
00> -30931
01> -43293
00> -30933
01> -43302
00> -30893
01> -43291
00> -30860
01> -43275
00> -30886
01> -43280
00> -30931
01> -43296
00> -30926
01> -43306
00> -30882
01> -43299
00> -30854
01> -43281
00> -30879
01> -43280
00> -30919
01> -43290
00> -30929
01> -43296
00> -30894
01> -43288
00> -30861
01> -43267
00> -30877
01> -43266
00> -30907
01> -43286
00> -30909
01> -43297
00> -30874
01> -43287
00> -30853
01> -43269
00> -30877
01> -43267
00> -30912
01> -43278
00> -30911
01> -43289
00> -30874
01> -43272
00> -30844
01> -43252
00> -30852
01> -43249
00> -30884
01> -43266
00> -30895
01> -43281
00> -30867
01> -43277
00> -30848
01> -43262
00> -30872
01> -43253
00> -30907
01> -43255
00> -30909
01> -43268
00> -30865
01> -43255
00> -30826
01> -43227
00> -30852
01> -43222
00> -30902
01> -43233
00> -30909
01> -43242
00> -30866
01> -43237
00> -30826
01> -43215
00> -30842
01> -43205
00> -30894
01> -43217
00> -30902
01> -43224
00> -30854
01> -43201
00> -30816
01> -43176
00> -30836
01> -43165
00> -30879
01> -43179
00> -30891
01> -43189
00> -30844
01> -43167
00> -30797
01> -43144
00> -30819
01> -43145
00> -30861
01> -43154
00> -30864
01> -43167
00> -30828
01> -43154
00> -30799
01> -43140
00> -30821
01> -43142
00> -30851
01> -43147
00> -30849
01> -43154
00> -30816
01> -43151
00> -30790
01> -43141
00> -30821
01> -43147
00> -30873
01> -43165
00> -30884
01> -43185
00> -30846
01> -43183
00> -30820
01> -43171
00> -30849
01> -43181
00> -30895
01> -43202
00> -30898
01> -43222
00> -30853
01> -43223
00> -30826
01> -43209
00> -30851
01> -43209
00> -30906
01> -43231
00> -30914
01> -43256
00> -30875
01> -43254
00> -30848
01> -43246
00> -30871
01> -43248
00> -30912
01> -43266
00> -30915
01> -43284
00> -30871
01> -43281
00> -30837
01> -43255
00> -30860
01> -43251
00> -30900
01> -43274
00> -30914
01> -43287
00> -30882
01> -43279
00> -30852
01> -43257
00> -30872
01> -43253
00> -30914
01> -43273
00> -30927
01> -43288
00> -30893
01> -43282
00> -30862
01> -43268
00> -30883
01> -43269
00> -30926
01> -43291
00> -30934
01> -43306
00> -30896
01> -43301
00> -30872
01> -43290
00> -30889
01> -43288
00> -30919
01> -43293
00> -30918
01> -43306
00> -30883
01> -43307
00> -30861
01> -43296
00> -30889
01> -43292
00> -30932
01> -43303
00> -30932
01> -43307
00> -30892
01> -43299
00> -30864
01> -43287
00> -30881
01> -43285
00> -30919
01> -43292
00> -30932
01> -43304
00> -30895
01> -43289
00> -30860
01> -43273
00> -30880
01> -43282
00> -30917
01> -43306
00> -30920
01> -43316
00> -30879
01> -43309
00> -30853
01> -43301
00> -30881
01> -43296
00> -30930
01> -43316
00> -30934
01> -43336
00> -30895
01> -43329
00> -30864
01> -43310
00> -30881
01> -43302
00> -30919
01> -43313
00> -30936
01> -43330
00> -30908
01> -43329
00> -30881
01> -43318
00> -30896
01> -43314
00> -30927
01> -43326
00> -30932
01> -43331
00> -30897
01> -43319
00> -30864
01> -43296
00> -30884
01> -43293
00> -30922
01> -43303
00> -30934
01> -43314
00> -30896
01> -43305
00> -30863
01> -43289
00> -30873
01> -43289
00> -30923
01> -43309
00> -30936
01> -43326
00> -30898
01> -43321
00> -30856
01> -43305
00> -30866
01> -43303
00> -30913
01> -43319
00> -30935
01> -43332
00> -30905
01> -43333
00> -30872
01> -43320
00> -30884
01> -43322
00> -30932
01> -43329
00> -30961
01> -43354
00> -30936
01> -43354
00> -30904
01> -43340
00> -30919
01> -43338
00> -30957
01> -43352
00> -30959
01> -43362
00> -30913
01> -43346
00> -30869
01> -43321
00> -30882
01> -43314
00> -30925
01> -43330
00> -30932
01> -43333
00> -30895
01> -43317
00> -30867
01> -43299
00> -30886
01> -43295
00> -30931
01> -43309
00> -30951
01> -43331
00> -30915
01> -43320
00> -30885
01> -43297
00> -30909
01> -43287
00> -30948
01> -43299
00> -30953
01> -43319
00> -30916
01> -43313
00> -30876
01> -43292
00> -30895
01> -43284
00> -30935
01> -43292
00> -30940
01> -43307
00> -30906
01> -43305
00> -30876
01> -43296
00> -30899
01> -43296
00> -30944
01> -43314
00> -30956
01> -43324
00> -30919
01> -43314
00> -30876
01> -43290
00> -30882
01> -43284
00> -30916
01> -43285
00> -30928
01> -43289
00> -30894
01> -43276
00> -30862
01> -43256
00> -30882
01> -43252
00> -30927
01> -43264
00> -30923
01> -43272
00> -30869
01> -43252
00> -30832
01> -43231
00> -30852
01> -43228
00> -30889
01> -43247
00> -30893
01> -43252
00> -30856
01> -43235
00> -30822
01> -43212
00> -30840
01> -43193
00> -30878
01> -43202
00> -30877
01> -43215
00> -30827
01> -43205
00> -30788
01> -43183
00> -30812
01> -43181
00> -30862
01> -43202
00> -30871
01> -43217
00> -30824
01> -43213
00> -30784
01> -43202
00> -30792
01> -43200
00> -30826
01> -43216
00> -30842
01> -43236
00> -30805
01> -43236
00> -30760
01> -43220
00> -30769
01> -43217
00> -30818
01> -43237
00> -30845
01> -43263
00> -30823
01> -43271
00> -30787
01> -43267
00> -30796
01> -43271
00> -30838
01> -43286
00> -30854
01> -43304
00> -30823
01> -43307
00> -30793
01> -43306
00> -30816
01> -43302
00> -30862
01> -43312
00> -30881
01> -43326
00> -30846
01> -43318
00> -30813
01> -43298
00> -30836
01> -43298
00> -30882
01> -43312
00> -30892
01> -43327
00> -30851
01> -43327
00> -30816
01> -43309
00> -30832
01> -43306
00> -30881
01> -43324
00> -30896
01> -43343
00> -30857
01> -43336
00> -30829
01> -43329
00> -30847
01> -43327
00> -30886
01> -43345
00> -30899
01> -43362
00> -30869
01> -43354
00> -30836
01> -43339
00> -30857
01> -43332
00> -30909
01> -43350
00> -30929
01> -43371
00> -30890
01> -43364
00> -30849
01> -43350
00> -30850
01> -43348
00> -30881
01> -43354
00> -30897
01> -43372
00> -30869
01> -43372
00> -30830
01> -43354
00> -30841
01> -43347
00> -30889
01> -43356
00> -30911
01> -43367
00> -30875
01> -43364
00> -30838
01> -43351
00> -30848
01> -43344
00> -30903
01> -43362
00> -30922
01> -43376
00> -30889
01> -43371
00> -30849
01> -43354
00> -30862
01> -43349
00> -30906
01> -43359
00> -30924
01> -43377
00> -30887
01> -43374
00> -30856
01> -43363
00> -30867
01> -43367
00> -30899
01> -43378
00> -30912
01> -43393
00> -30879
01> -43388
00> -30847
01> -43369
00> -30858
01> -43361
00> -30898
01> -43368
00> -30911
01> -43378
00> -30876
01> -43367
00> -30844
01> -43351
00> -30852
01> -43338
00> -30890
01> -43342
00> -30907
01> -43356
00> -30872
01> -43344
00> -30833
01> -43326
00> -30846
01> -43320
00> -30889
01> -43336
00> -30908
01> -43359
00> -30882
01> -43358
00> -30843
01> -43346
00> -30854
01> -43342
00> -30897
01> -43350
00> -30916
01> -43364
00> -30894
01> -43369
00> -30858
01> -43361
00> -30857
01> -43349
00> -30891
01> -43363
00> -30904
01> -43388
00> -30876
01> -43384
00> -30848
01> -43367
00> -30864
01> -43354
00> -30905
01> -43367
00> -30924
01> -43385
00> -30897
01> -43381
00> -30851
01> -43359
00> -30851
01> -43342
00> -30897
01> -43352
00> -30917
01> -43369
00> -30879
01> -43363
00> -30840
01> -43346
00> -30849
01> -43335
00> -30886
01> -43342
00> -30914
01> -43359
00> -30891
01> -43360
00> -30852
01> -43347
00> -30869
01> -43337
00> -30911
01> -43354
00> -30929
01> -43379
00> -30896
01> -43376
00> -30854
01> -43357
00> -30862
01> -43350
00> -30902
01> -43362
00> -30924
01> -43371
00> -30883
01> -43366
00> -30847
01> -43346
00> -30854
01> -43332
00> -30886
01> -43335
00> -30894
01> -43343
00> -30856
01> -43337
00> -30816
01> -43316
00> -30829
01> -43309
00> -30874
01> -43319
00> -30896
01> -43328
00> -30869
01> -43324
00> -30821
01> -43299
00> -30826
01> -43280
00> -30874
01> -43285
00> -30899
01> -43294
00> -30864
01> -43277
00> -30832
01> -43254
00> -30843
01> -43245
00> -30874
01> -43252
00> -30888
01> -43260
00> -30854
01> -43249
00> -30812
01> -43224
00> -30826
01> -43215
00> -30874
01> -43232
00> -30887
01> -43239
00> -30849
01> -43229
00> -30821
01> -43214
00> -30837
01> -43214
00> -30874
01> -43220
00> -30887
01> -43229
00> -30850
01> -43224
00> -30808
01> -43204
00> -30820
01> -43191
00> -30860
01> -43197
00> -30881
01> -43212
00> -30856
01> -43216
00> -30822
01> -43205
00> -30835
01> -43202
00> -30877
01> -43218
00> -30899
01> -43237
00> -30870
01> -43241
00> -30830
01> -43227
00> -30834
01> -43217
00> -30877
01> -43230
00> -30900
01> -43241
00> -30868
01> -43242
00> -30832
01> -43224
00> -30850

00> -30887
01> -43227
00> -30907
01> -43237
00> -30887
01> -43237
00> -30855
01> -43231
00> -30856
01> -43221
00> -30882
01> -43228
00> -30904
01> -43250
00> -30879
01> -43253
00> -30849
01> -43242
00> -30857
01> -43241
00> -30896
01> -43250
00> -30921
01> -43269
00> -30892
01> -43272
00> -30859
01> -43261
00> -30864
01> -43249
00> -30907
01> -43262
00> -30924
01> -43278
00> -30900
01> -43272
00> -30873
01> -43264
00> -30889
01> -43264
00> -30927
01> -43277
00> -30953
01> -43294
00> -30919
01> -43293
00> -30875
01> -43283
00> -30878
01> -43276
00> -30920
01> -43287
00> -30952
01> -43310
00> -30934
01> -43309
00> -30900
01> -43293
00> -30899
01> -43283
00> -30927
01> -43294
00> -30952
01> -43312
00> -30934
01> -43309
00> -30914
01> -43300
00> -30926
01> -43293
00> -30966
01> -43302
00> -30996
01> -43327
00> -30972
01> -43330
00> -30939
01> -43321
00> -30951
01> -43318
00> -30991
01> -43327
00> -31011
01> -43344
00> -30979
01> -43344
00> -30943
01> -43331
00> -30952
01> -43321
00> -30997
01> -43336
00> -31014
01> -43350
00> -30974
01> -43342
00> -30941
01> -43333
00> -30954
01> -43326
00> -30996
01> -43332
00> -31015
01> -43348
00> -30986
01> -43347
00> -30952
01> -43334
00> -30959
01> -43326
00> -31010
01> -43334
00> -31031
01> -43351
00> -30999
01> -43349
00> -30959
01> -43327
00> -30961
01> -43318
00> -30996
01> -43331
00> -31023
01> -43345
00> -31004
01> -43347
00> -30969
01> -43334
00> -30976
01> -43331
00> -31028
01> -43343
00> -31061
01> -43365
00> -31034
01> -43371
00> -30994
01> -43359
00> -31006
01> -43354
00> -31042
01> -43364
00> -31061
01> -43387
00> -31036
01> -43389
00> -30997
01> -43374
00> -31008
01> -43371
00> -31051
01> -43386
00> -31066
01> -43404
00> -31036
01> -43397
00> -31004
01> -43379
00> -31011
01> -43371
00> -31046
01> -43371
00> -31070
01> -43386
00> -31042
01> -43391
00> -31009
01> -43375
00> -31022
01> -43360
00> -31071
01> -43367
00> -31086
01> -43382
00> -31052
01> -43383
00> -31018
01> -43372
00> -31030
01> -43369
00> -31066
01> -43377
00> -31087
01> -43399
00> -31055
01> -43402
00> -31011
01> -43393
00> -31020
01> -43387
00> -31073
01> -43401
00> -31098
01> -43415
00> -31061
01> -43411
00> -31022
01> -43401
00> -31033
01> -43394
00> -31074
01> -43401
00> -31095
01> -43419
00> -31059
01> -43411
00> -31021
01> -43394
00> -31027
01> -43388
00> -31058
01> -43396
00> -31067
01> -43413
00> -31031
01> -43411
00> -30996
01> -43397
00> -31014
01> -43386
00> -31065
01> -43392
00> -31086
01> -43409
00> -31049
01> -43406
00> -31005
01> -43389
00> -31012
01> -43382
00> -31055
01> -43401
00> -31072
01> -43420
00> -31043
01> -43421
00> -31016
01> -43414
00> -31023
01> -43412
00> -31067
01> -43418
00> -31083
01> -43426
00> -31039
01> -43417
00> -30991
01> -43395
00> -30997
01> -43389
00> -31039
01> -43392
00> -31061
01> -43407
00> -31031
01> -43407
00> -30987
01> -43390
00> -30992
01> -43376
00> -31038
01> -43390
00> -31064
01> -43409
00> -31031
01> -43411
00> -30988
01> -43399
00> -30982
01> -43391
00> -31013
01> -43394
00> -31042
01> -43406
00> -31017
01> -43402
00> -30986
01> -43396
00> -30992
01> -43392
00> -31032
01> -43407
00> -31053
01> -43432
00> -31028
01> -43439
00> -30999
01> -43426
00> -31016
01> -43416
00> -31065
01> -43422
00> -31081
01> -43438
00> -31051
01> -43442
00> -31011
01> -43429
00> -31017
01> -43423
00> -31066
01> -43433
00> -31085
01> -43446
00> -31042
01> -43438
00> -30991
01> -43419
00> -30995
01> -43412
00> -31051
01> -43429
00> -31086
01> -43450
00> -31065
01> -43450
00> -31026
01> -43436
00> -31022
01> -43419
00> -31052
01> -43429
00> -31071
01> -43443
00> -31047
01> -43447
00> -31014
01> -43432
00> -31020
01> -43426
00> -31053
01> -43441
00> -31076
01> -43463
00> -31049
01> -43468
00> -31019
01> -43456
00> -31030
01> -43451
00> -31070
01> -43462
00> -31097
01> -43478
00> -31067
01> -43479
00> -31024
01> -43467
00> -31027
01> -43464
00> -31072
01> -43482
00> -31101
01> -43504
00> -31072
01> -43504
00> -31027
01> -43491
00> -31024
01> -43481
00> -31060
01> -43489
00> -31083
01> -43506
00> -31069
01> -43507
00> -31037
01> -43491
00> -31029
01> -43482
00> -31051
01> -43490
00> -31071
01> -43507
00> -31057
01> -43514
00> -31031
01> -43501
00> -31034
01> -43497
00> -31070
01> -43512
00> -31092
01> -43534
00> -31068
01> -43539
00> -31032
01> -43523
00> -31033
01> -43504
00> -31079
01> -43517
00> -31108
01> -43536
00> -31086
01> -43537
00> -31036
01> -43530
00> -31029
01> -43517
00> -31061
01> -43521
00> -31088
01> -43534
00> -31066
01> -43533
00> -31030
01> -43518
00> -31029
01> -43505
00> -31064
01> -43518
00> -31091
01> -43537
00> -31073
01> -43535
00> -31030
01> -43525
00> -31026
01> -43513
00> -31065
01> -43522
00> -31086
01> -43539
00> -31061
01> -43541
00> -31019
01> -43521
00> -31022
01> -43514
00> -31065
01> -43532
00> -31089
01> -43552
00> -31071
01> -43552
00> -31037
01> -43537
00> -31034
01> -43517
00> -31061
01> -43519
00> -31084
01> -43530
00> -31062
01> -43531
00> -31031
01> -43522
00> -31030
01> -43516
00> -31061
01> -43527
00> -31086
01> -43547
00> -31062
01> -43551
00> -31031
01> -43536
00> -31033
01> -43522
00> -31069
01> -43528
00> -31092
01> -43542
00> -31063
01> -43539
00> -31016
01> -43526
00> -31015
01> -43516
00> -31062
01> -43523
00> -31094
01> -43535
00> -31061
01> -43528
00> -31015
01> -43504
00> -31020
01> -43496
00> -31064
01> -43512
00> -31089
01> -43531
00> -31059
01> -43532
00> -31023
01> -43521
00> -31020
01> -43516
00> -31062
01> -43517
00> -31089
01> -43526
00> -31067
01> -43529
00> -31019
01> -43527
00> -31019
01> -43515
00> -31048
01> -43517
00> -31073
01> -43535
00> -31057
01> -43539
00> -31026
01> -43523
00> -31032
01> -43515
00> -31064
01> -43518
00> -31090
01> -43529
00> -31065
01> -43534
00> -31022
01> -43524
00> -31022
01> -43513
00> -31069
01> -43521
00> -31100
01> -43541
00> -31072
01> -43544
00> -31036
01> -43531
00> -31037
01> -43524
00> -31074
01> -43529
00> -31089
01> -43543
00> -31069
01> -43541
00> -31033
01> -43524
00> -31027
01> -43515
00> -31052
01> -43525
00> -31069
01> -43539
00> -31045
01> -43537
00> -31014
01> -43529
00> -31025
01> -43522
00> -31073
01> -43531
00> -31099
01> -43548
00> -31062
01> -43548
00> -31020
01> -43528
00> -31017
01> -43512
00> -31058
01> -43515
00> -31089
01> -43534
00> -31067
01> -43530
00> -31014
01> -43505
00> -31007
01> -43496
00> -31052
01> -43509
00> -31085
01> -43532
00> -31071
01> -43537
00> -31033
01> -43527
00> -31027
01> -43512
00> -31063
01> -43515
00> -31095
01> -43526
00> -31079
01> -43528
00> -31042
01> -43514
00> -31039
01> -43494
00> -31072
01> -43499
00> -31096
01> -43522
00> -31074
01> -43522
00> -31031
01> -43503
00> -31021
01> -43492
00> -31049
01> -43497
00> -31068
01> -43506
00> -31045
01> -43501
00> -31015
01> -43493
00> -31015
01> -43478
00> -31043
01> -43482
00> -31066
01> -43494
00> -31046
01> -43493
00> -31003
01> -43481
00> -31000
01> -43476
00> -31032
01> -43492
00> -31057
01> -43514
00> -31026
01> -43511
00> -30977
01> -43492
00> -30974
01> -43476
00> -31013
01> -43476
00> -31037
01> -43494
00> -31009
01> -43503
00> -30966
01> -43492
00> -30965
01> -43477
00> -31006
01> -43479
00> -31039
01> -43490
00> -31017
01> -43492
00> -30972
01> -43477
00> -30961
01> -43461
00> -30994
01> -43469
00> -31019
01> -43485
00> -31002
01> -43491
00> -30971
01> -43477
00> -30969
01> -43460
00> -31005
01> -43462
00> -31030
01> -43477
00> -31012
01> -43485
00> -30981
01> -43474
00> -30986
01> -43465
00> -31030
01> -43471
00> -31054
01> -43484
00> -31030
01> -43482
00> -30996
01> -43469
00> -30995
01> -43459
00> -31032
01> -43474
00> -31057
01> -43492
00> -31035
01> -43492
00> -30992
01> -43474
00> -30987
01> -43461
00> -31016
01> -43459
00> -31034
01> -43475
00> -31014
01> -43476
00> -30983
01> -43461
00> -30985
01> -43443
00> -31022
01> -43447
00> -31044
01> -43462
00> -31016
01> -43456
00> -30979
01> -43441
00> -30976
01> -43437
00> -31016
01> -43452
00> -31054
01> -43468
00> -31043
01> -43474
00> -31007
01> -43466
00> -30996
01> -43452
00> -31022
01> -43461
00> -31051
01> -43486
00> -31029
01> -43492
00> -30987
01> -43481
00> -30984
01> -43471
00> -31027
01> -43474
00> -31067
01> -43491
00> -31044
01> -43492
00> -31003
01> -43476
00> -30990
01> -43452
00> -31019
01> -43447
00> -31037
01> -43463
00> -31021
01> -43466
00> -30985
01> -43446
00> -30981
01> -43428
00> -31024
01> -43434
00> -31062
01> -43447
00> -31034
01> -43444
00> -30977
01> -43429
00> -30960
01> -43413
00> -30994
01> -43420
00> -31027
01> -43433
00> -31021
01> -43434
00> -30992
01> -43421
00> -30995
01> -43411
00> -31024
01> -43419
00> -31046
01> -43433
00> -31024
01> -43432
00> -30981
01> -43410
00> -30964
01> -43392
00> -30989
01> -43390
00> -31006
01> -43395
00> -30982
01> -43384
00> -30939
01> -43364
00> -30934
01> -43341
00> -30974
01> -43342
00> -30992
01> -43350
00> -30960
01> -43346
00> -30915
01> -43317
00> -30909
01> -43286
00> -30937
01> -43281
00> -30951
01> -43286
00> -30920
01> -43279
00> -30869
01> -43262
00> -30861
01> -43256
00> -30902
01> -43272
00> -30939
01> -43295
00> -30920
01> -43300
00> -30873
01> -43283
00> -30869
01> -43274
00> -30911
01> -43288
00> -30936
01> -43309
00> -30909
01> -43312
00> -30873
01> -43298
00> -30869
01> -43286
00> -30909
01> -43295
00> -30942
01> -43312
00> -30924
01> -43319
00> -30880
01> -43299
00> -30864
01> -43285
00> -30888
01> -43288
00> -30912
01> -43302
00> -30892
01> -43308
00> -30859
01> -43299
00> -30864
01> -43283
00> -30917
01> -43288
00> -30959
01> -43320
00> -30944
01> -43326
00> -30899
01> -43312
00> -30887
01> -43304
00> -30928
01> -43309
00> -30961
01> -43327
00> -30939
01> -43330
00> -30896
01> -43319
00> -30888
01> -43310
00> -30920
01> -43317
00> -30950
01> -43329
00> -30932
01> -43330
00> -30895
01> -43323
00> -30892
01> -43316
00> -30933
01> -43331
00> -30962
01> -43347
00> -30936
01> -43353
00> -30887
01> -43337
00> -30890
01> -43323
00> -30934
01> -43331
00> -30958
01> -43342
00> -30936
01> -43350
00> -30893
01> -43337
00> -30887
01> -43321
00> -30917
01> -43325
00> -30944
01> -43342
00> -30925
01> -43347
00> -30883
01> -43336
00> -30872
01> -43324
00> -30911
01> -43328
00> -30949
01> -43350
00> -30941
01> -43357
00> -30906
01> -43350
00> -30900
01> -43340
00> -30926
01> -43342
00> -30948
01> -43357
00> -30925
01> -43351
00> -30886
01> -43344
00> -30889
01> -43339
00> -30931
01> -43354
00> -30959
01> -43374
00> -30938
01> -43376
00> -30902
01> -43362
00> -30901
01> -43346
00> -30937
01> -43350
00> -30961
01> -43364
00> -30940
01> -43363
00> -30897
01> -43348
00> -30882
01> -43327
00> -30916
01> -43327
00> -30946
01> -43350
00> -30934
01> -43354
00> -30909
01> -43344
00> -30902
01> -43334
00> -30936
01> -43334
00> -30963
01> -43344
00> -30937
01> -43348
00> -30896
01> -43329
00> -30889
01> -43318
00> -30926
01> -43328
00> -30961
01> -43341
00> -30944
01> -43350
00> -30902
01> -43330
00> -30885
01> -43307
00> -30923
01> -43316
00> -30964
01> -43338
00> -30944
01> -43343
00> -30897
01> -43326
00> -30879
01> -43307
00> -30908
01> -43309
00> -30934
01> -43316
00> -30924
01> -43325
00> -30893
01> -43316
00> -30884
01> -43304
00> -30916
01> -43307
00> -30946
01> -43321
00> -30930
01> -43324
00> -30891
01> -43307
00> -30875
01> -43291
00> -30909
01> -43290
00> -30947
01> -43307
00> -30929
01> -43315
00> -30889
01> -43306
00> -30877
01> -43291
00> -30912
01> -43294
00> -30946
01> -43303
00> -30924
01> -43309
00> -30879
01> -43286
00> -30866
01> -43264
00> -30907
01> -43271
00> -30932
01> -43281
00> -30912
01> -43282
00> -30871
01> -43271
00> -30863
01> -43262
00> -30904
01> -43276
00> -30939
01> -43297
00> -30924
01> -43306
00> -30883
01> -43295
00> -30871
01> -43288
00> -30905
01> -43301
00> -30941
01> -43329
00> -30929
01> -43341
00> -30899
01> -43336
00> -30896
01> -43325
00> -30935
01> -43336
00> -30960
01> -43351
00> -30942
01> -43356
00> -30909
01> -43347
00> -30896
01> -43329
00> -30929
01> -43336
00> -30962
01> -43354
00> -30945
01> -43355
00> -30914
01> -43341
00> -30902
01> -43323
00> -30935
01> -43321
00> -30964
01> -43323
00> -30950
01> -43324
00> -30917
01> -43316
00> -30911
01> -43307
00> -30953
01> -43312
00> -30981
01> -43325
00> -30959
01> -43325
00> -30917
01> -43308
00> -30906
01> -43290
00> -30936
01> -43294
00> -30964
01> -43314
00> -30949
01> -43320
00> -30911
01> -43304
00> -30901
01> -43292
00> -30926
01> -43297
00> -30956
01> -43317
00> -30948
01> -43327
00> -30910
01> -43318
00> -30903
01> -43312
00> -30946
01> -43311
00> -30974
01> -43323
00> -30958
01> -43327
00> -30921
01> -43308
00> -30909
01> -43296
00> -30937
01> -43294
00> -30969
01> -43304
00> -30954
01> -43307
00> -30905
01> -43289
00> -30894
01> -43272
00> -30931
01> -43275
00> -30971
01> -43296
00> -30956
01> -43300
00> -30904
01> -43288
00> -30890
01> -43276
00> -30929
01> -43284
00> -30964
01> -43300
00> -30959
01> -43309
00> -30924
01> -43306
00> -30911
01> -43296
00> -30942
01> -43298
00> -30978
01> -43320
00> -30961
01> -43322
00> -30914
01> -43311
00> -30897
01> -43292
00> -30921
01> -43294
00> -30954
01> -43309
00> -30939
01> -43313
00> -30896
01> -43302
00> -30884
01> -43292
00> -30932
01> -43304
00> -30972
01> -43319
00> -30949
01> -43324
00> -30897
01> -43308
00> -30886
01> -43291
00> -30927
01> -43299
00> -30960
01> -43315
00> -30949
01> -43324
00> -30921
01> -43313
00> -30918
01> -43304
00> -30955
01> -43305
00> -30984
01> -43322
00> -30971
01> -43326
00> -30937
01> -43317
00> -30930
01> -43306
00> -30959
01> -43314
00> -30986
01> -43324
00> -30972
01> -43328
00> -30937
01> -43321
00> -30929
01> -43311
00> -30959
01> -43322
00> -30992
01> -43336
00> -30987
01> -43338
00> -30952
01> -43328
00> -30934
01> -43309
00> -30961
01> -43302
00> -30991
01> -43320
00> -30976
01> -43321
00> -30941
01> -43312
00> -30934
01> -43297
00> -30971
01> -43306
00> -30999
01> -43317
00> -30986
01> -43328
00> -30952
01> -43326
00> -30944
01> -43312
00> -30975
01> -43317
00> -31003
01> -43336
00> -30986
01> -43346
00> -30944
01> -43332
00> -30923
01> -43316
00> -30947
01> -43316
00> -30972
01> -43324
00> -30956
01> -43334
00> -30921
01> -43319
00> -30911
01> -43306
00> -30944
01> -43310
00> -30978
01> -43326
00> -30964
01> -43339
00> -30920
01> -43326
00> -30898
01> -43309
00> -30930
01> -43314
00> -30968
01> -43329
00> -30954
01> -43330
00> -30920
01> -43317
00> -30909
01> -43302
00> -30934
01> -43304
00> -30960
01> -43321
00> -30947
01> -43327
00> -30903
01> -43314
00> -30877
01> -43293
00> -30912
01> -43306
00> -30961
01> -43329
00> -30960
01> -43340
00> -30913
01> -43323
00> -30895
01> -43303
00> -30924
01> -43310
00> -30956
01> -43329
00> -30941
01> -43337
00> -30903
01> -43329
00> -30893
01> -43314
00> -30926
01> -43312
00> -30969
01> -43324
00> -30959
01> -43332
00> -30916
01> -43321
00> -30907
01> -43307
00> -30936
01> -43316
00> -30957
01> -43331
00> -30939
01> -43334
00> -30899
01> -43319
00> -30881
01> -43301
00> -30909
01> -43301
00> -30947
01> -43317
00> -30941
01> -43325
00> -30906
01> -43316
00> -30888
01> -43302
00> -30920
01> -43306
00> -30952
01> -43327
00> -30935
01> -43343
00> -30889
01> -43334
00> -30877
01> -43319
00> -30919
01> -43323
00> -30947
01> -43336
00> -30932
01> -43342
00> -30889
01> -43329
00> -30871
01> -43315
00> -30899
01> -43316
00> -30932
01> -43331
00> -30932
01> -43339
00> -30896
01> -43321
00> -30879
01> -43302
00> -30907
01> -43301
00> -30936
01> -43316
00> -30924
01> -43321
00> -30881
01> -43299
00> -30861
01> -43279
00> -30896
01> -43283
00> -30936
01> -43306
00> -30927
01> -43317
00> -30896
01> -43307
00> -30875
01> -43289
00> -30906
01> -43294
00> -30946
01> -43316
00> -30933
01> -43321
00> -30893
01> -43308
00> -30879
01> -43294
00> -30907
01> -43301
00> -30925
01> -43314
00> -30909
01> -43324
00> -30876
01> -43311
00> -30871
01> -43294
00> -30911
01> -43304
00> -30951
01> -43319
00> -30941
01> -43327
00> -30904
01> -43321
00> -30887
01> -43302
00> -30914
01> -43303
00> -30944
01> -43314
00> -30930
01> -43321
00> -30887
01> -43312
00> -30884
01> -43293
00> -30923
01> -43293
00> -30963
01> -43309
00> -30949
01> -43312
00> -30906
01> -43304
00> -30879
01> -43286
00> -30914
01> -43295
00> -30957
01> -43315
00> -30946
01> -43324
00> -30891
01> -43308
00> -30861
01> -43284
00> -30887
01> -43287
00> -30926
01> -43307
00> -30933
01> -43322
00> -30901
01> -43316
00> -30882
01> -43302
00> -30914
01> -43307
00> -30947
01> -43324
00> -30929
01> -43324
00> -30889
01> -43316
00> -30876
01> -43292
00> -30910
01> -43294
00> -30954
01> -43314
00> -30943
01> -43322
00> -30902
01> -43315
00> -30879
01> -43299
00> -30901
01> -43293
00> -30931
01> -43301
00> -30914
01> -43299
00> -30864
01> -43277
00> -30838
01> -43250
00> -30862
01> -43243
00> -30886
01> -43247
00> -30875
01> -43246
00> -30849
01> -43234
00> -30834
01> -43213
00> -30858
01> -43208
00> -30886
01> -43212
00> -30876
01> -43215
00> -30837
01> -43204
00> -30821
01> -43188
00> -30849
01> -43192
00> -30871
01> -43212
00> -30853
01> -43229
00> -30812
01> -43228
00> -30804
01> -43213
00> -30849
01> -43219
00> -30887
01> -43241
00> -30884
01> -43255
00> -30844
01> -43249
00> -30826
01> -43244
00> -30857
01> -43257
00> -30888
01> -43276
00> -30882
01> -43292
00> -30854
01> -43297
00> -30851
01> -43299
00> -30888
01> -43311
00> -30916
01> -43333
00> -30910
01> -43352
00> -30880
01> -43356
00> -30862
01> -43353
00> -30896
01> -43365
00> -30939
01> -43390
00> -30929
01> -43396
00> -30890
01> -43388
00> -30868
01> -43374
00> -30897
01> -43377
00> -30941
01> -43392
00> -30936
01> -43403
00> -30904
01> -43396
00> -30890
01> -43379
00> -30922
01> -43378
00> -30956
01> -43397
00> -30941
01> -43406
00> -30894
01> -43402
00> -30882
01> -43389
00> -30919
01> -43391
00> -30955
01> -43413
00> -30952
01> -43419
00> -30909
01> -43404
00> -30887
01> -43387
00> -30916
01> -43392
00> -30952
01> -43410
00> -30946
01> -43416
00> -30911
01> -43410
00> -30898
01> -43397
00> -30937
01> -43399
00> -30974
01> -43424
00> -30961
01> -43429
00> -30916
01> -43412
00> -30892
01> -43398
00> -30911
01> -43398
00> -30947
01> -43412
00> -30954
01> -43429
00> -30921
01> -43422
00> -30896
01> -43412
00> -30919
01> -43411
00> -30957
01> -43426
00> -30950
01> -43432
00> -30906
01> -43422
00> -30889
01> -43411
00> -30921
01> -43414
00> -30962
01> -43422
00> -30956
01> -43423
00> -30924
01> -43418
00> -30906
01> -43408
00> -30939
01> -43419
00> -30976
01> -43446
00> -30959
01> -43444
00> -30911
01> -43431
00> -30900
01> -43417
00> -30935
01> -43420
00> -30975
01> -43437
00> -30974
01> -43442
00> -30940
01> -43431
00> -30919
01> -43411
00> -30941
01> -43405
00> -30963
01> -43414
00> -30954
01> -43416
00> -30926
01> -43408
00> -30915
01> -43396
00> -30945
01> -43405
00> -30974
01> -43420
00> -30976
01> -43427
00> -30942
01> -43419
00> -30918
01> -43398
00> -30939
01> -43393
00> -30974
01> -43410
00> -30974
01> -43428
00> -30939
01> -43423
00> -30919
01> -43414
00> -30945
01> -43416
00> -30974
01> -43421
00> -30959
01> -43424
00> -30920
01> -43412
00> -30906
01> -43398
00> -30947
01> -43402
00> -30987
01> -43418
00> -30974
01> -43431
00> -30922
01> -43420
00> -30891
01> -43404
00> -30923
01> -43407
00> -30969
01> -43424
00> -30965
01> -43437
00> -30922
01> -43419
00> -30895
01> -43397
00> -30919
01> -43399
00> -30961
01> -43411
00> -30959
01> -43416
00> -30909
01> -43399
00> -30888
01> -43387
00> -30927
01> -43396
00> -30958
01> -43411
00> -30939
01> -43422
00> -30891
01> -43411
00> -30875
01> -43400
00> -30911
01> -43410
00> -30959
01> -43432
00> -30966
01> -43449
00> -30919
01> -43437
00> -30885
01> -43409
00> -30911
01> -43396
00> -30953
01> -43411
00> -30947
01> -43421
00> -30918
01> -43418
00> -30906
01> -43402
00> -30931
01> -43397
00> -30961
01> -43407
00> -30948
01> -43413
00> -30900
01> -43392
00> -30871
01> -43373
00> -30890
01> -43376
00> -30930
01> -43388
00> -30932
01> -43396
00> -30896
01> -43382
00> -30880
01> -43367
00> -30910
01> -43365
00> -30942
01> -43376
00> -30928
01> -43374
00> -30882
01> -43355
00> -30859
01> -43341
00> -30892
01> -43351
00> -30933
01> -43369
00> -30925
01> -43375
00> -30886
01> -43359
00> -30870
01> -43345
00> -30892
01> -43338
00> -30932
01> -43347
00> -30932
01> -43357
00> -30894
01> -43343
00> -30867
01> -43321
00> -30897
01> -43319
00> -30939
01> -43336
00> -30934
01> -43341
00> -30894
01> -43324
00> -30878
01> -43310
00> -30916
01> -43317
00> -30958
01> -43334
00> -30947
01> -43344
00> -30908
01> -43346
00> -30899
01> -43344
00> -30940
01> -43353
00> -30982
01> -43379
00> -30979
01> -43396
00> -30944
01> -43386
00> -30924
01> -43376
00> -30954
01> -43387
00> -30994
01> -43402
00> -30992
01> -43411
00> -30952
01> -43404
00> -30927
01> -43387
00> -30954
01> -43386
00> -30993
01> -43400
00> -30979
01> -43408
00> -30938
01> -43401
00> -30916
01> -43384
00> -30940
01> -43377
00> -30975
01> -43387
00> -30972
01> -43392
00> -30942
01> -43386
00> -30926
01> -43376
00> -30954
01> -43379
00> -30988
01> -43392
00> -30979
01> -43411
00> -30937
01> -43406
00> -30924
01> -43404
00> -30956
01> -43404
00> -30989
01> -43417
00> -30995
01> -43428
00> -30962
01> -43421
00> -30949
01> -43409
00> -30977
01> -43413
00> -31009
01> -43430
00> -30994
01> -43434
00> -30952
01> -43427
00> -30931
01> -43414
00> -30958
01> -43416
00> -30993
01> -43427
00> -30985
01> -43436
00> -30945
01> -43424
00> -30931
01> -43405
00> -30964
01> -43406
00> -30999
01> -43417
00> -30986
01> -43424
00> -30944
01> -43418
00> -30919
01> -43407
00> -30941
01> -43411
00> -30972
01> -43430
00> -30971
01> -43445
00> -30935
01> -43441
00> -30919
01> -43430
00> -30951
01> -43434
00> -30986
01> -43452
00> -30975
01> -43462
00> -30919
01> -43450
00> -30893
01> -43439
00> -30933
01> -43444
00> -30981
01> -43462
00> -30979
01> -43477
00> -30937
01> -43470
00> -30902
01> -43451
00> -30916
01> -43444
00> -30949
01> -43451
00> -30956
01> -43460
00> -30927
01> -43448
00> -30899
01> -43431
00> -30914
01> -43433
00> -30936
01> -43446
00> -30936
01> -43460
00> -30908
01> -43457
00> -30893
01> -43442
00> -30926
01> -43442
00> -30954
01> -43456
00> -30950
01> -43468
00> -30919
01> -43461
00> -30899
01> -43448
00> -30918
01> -43449
00> -30957
01> -43461
00> -30960
01> -43477
00> -30917
01> -43477
00> -30884
01> -43459
00> -30909
01> -43461
00> -30954
01> -43481
00> -30957
01> -43493
00> -30926
01> -43485
00> -30909
01> -43476
00> -30938
01> -43481
00> -30973
01> -43492
00> -30967
01> -43494
00> -30934
01> -43481
00> -30923
01> -43463
00> -30957
01> -43464
00> -30995
01> -43479
00> -30991
01> -43492
00> -30950
01> -43482
00> -30932
01> -43466
00> -30962
01> -43469
00> -30999
01> -43486
00> -30996
01> -43504
00> -30963
01> -43499
00> -30946
01> -43479
00> -30969
01> -43475
00> -31006
01> -43496
00> -31002
01> -43506
00> -30956
01> -43494
00> -30933
01> -43479
00> -30966
01> -43481
00> -30997
01> -43493
00> -30990
01> -43493
00> -30956
01> -43480
00> -30941
01> -43467
00> -30974
01> -43471
00> -31015
01> -43484
00> -31012
01> -43497
00> -30968
01> -43484
00> -30939
01> -43462
00> -30959
01> -43459
00> -30994
01> -43468
00> -30992
01> -43477
00> -30955
01> -43475
00> -30927
01> -43459
00> -30954
01> -43459
00> -30997
01> -43477
00> -30991
01> -43486
00> -30942
01> -43472
00> -30915
01> -43458
00> -30948
01> -43454
00> -30986
01> -43464
00> -30980
01> -43474
00> -30934
01> -43462
00> -30906
01> -43439
00> -30926
01> -43436
00> -30967
01> -43454
00> -30965
01> -43466
00> -30923
01> -43458
00> -30893
01> -43439
00> -30912
01> -43436
00> -30947
01> -43449
00> -30951
01> -43461
00> -30917
01> -43452
00> -30891
01> -43437
00> -30922
01> -43444
00> -30962
01> -43459
00> -30959
01> -43471
00> -30914
01> -43458
00> -30899
01> -43443
00> -30932
01> -43445
00> -30964
01> -43451
00> -30957
01> -43465
00> -30918
01> -43466
00> -30897
01> -43454
00> -30929
01> -43452
00> -30969
01> -43463
00> -30961
01> -43471
00> -30922
01> -43456
00> -30894
01> -43433
00> -30921
01> -43430
00> -30958
01> -43447
00> -30955
01> -43464
00> -30912
01> -43461
00> -30890
01> -43441
00> -30913
01> -43432
00> -30951
01> -43444
00> -30948
01> -43459
00> -30915
01> -43452
00> -30891
01> -43434
00> -30901
01> -43429
00> -30927
01> -43438
00> -30915
01> -43441
00> -30874
01> -43430
00> -30857
01> -43411
00> -30893
01> -43411
00> -30937
01> -43429
00> -30946
01> -43443
00> -30914
01> -43437
00> -30889
01> -43427
00> -30908
01> -43430
00> -30941
01> -43447
00> -30940
01> -43457
00> -30901
01> -43448
00> -30876
01> -43430
00> -30902
01> -43426
00> -30942
01> -43441
00> -30941
01> -43446
00> -30899
01> -43433
00> -30867
01> -43415
00> -30888
01> -43411
00> -30922
01> -43424
00> -30918
01> -43434
00> -30883
01> -43430
00> -30861
01> -43412
00> -30891
01> -43406
00> -30927
01> -43414
00> -30927
01> -43427
00> -30886
01> -43421
00> -30862
01> -43406
00> -30887
01> -43409
00> -30932
01> -43422
00> -30937
01> -43437
00> -30905
01> -43434
00> -30896
01> -43428
00> -30926
01> -43432
00> -30971
01> -43449
00> -30973
01> -43464
00> -30939
01> -43455
00> -30905
01> -43434
00> -30919
01> -43429
00> -30949
01> -43433
00> -30950
01> -43442
00> -30909
01> -43434
00> -30877
01> -43421
00> -30909
01> -43421
00> -30952
01> -43431
00> -30949
01> -43440
00> -30901
01> -43421
00> -30866
01> -43391
00> -30884
01> -43392
00> -30926
01> -43409
00> -30934
01> -43422
00> -30900
01> -43415
00> -30878
01> -43395
00> -30896
01> -43392
00> -30928
01> -43414
00> -30936
01> -43437
00> -30912
01> -43437
00> -30890
01> -43424
00> -30911
01> -43423
00> -30948
01> -43429
00> -30951
01> -43438
00> -30910
01> -43430
00> -30876
01> -43409
00> -30901
01> -43406
00> -30938
01> -43425
00> -30931
01> -43437
00> -30887
01> -43419
00> -30864
01> -43404
00> -30892
01> -43406
00> -30934
01> -43413
00> -30932
01> -43418
00> -30895
01> -43412
00> -30881
01> -43407
00> -30912
01> -43411
00> -30949
01> -43426
00> -30945
01> -43435
00> -30896
01> -43418
00> -30864
01> -43397
00> -30896
01> -43404
00> -30941
01> -43425
00> -30945
01> -43440
00> -30904
01> -43426
00> -30877
01> -43409
00> -30902
01> -43413
00> -30932
01> -43429
00> -30920
01> -43441
00> -30878
01> -43429
00> -30861
01> -43412
00> -30893
01> -43406
00> -30937
01> -43424
00> -30939
01> -43433
00> -30894
01> -43422
00> -30859
01> -43407
00> -30884
01> -43401
00> -30925
01> -43412
00> -30924
01> -43421
00> -30874
01> -43407
00> -30842
01> -43382
00> -30867
01> -43384
00> -30915
01> -43399
00> -30922
01> -43409
00> -30884
01> -43394
00> -30850
01> -43371
00> -30873
01> -43375
00> -30909
01> -43395
00> -30899
01> -43406
00> -30859
01> -43398
00> -30842
01> -43383
00> -30874
01> -43381
00> -30919
01> -43393
00> -30921
01> -43412
00> -30887
01> -43411
00> -30857
01> -43392
00> -30880
01> -43390
00> -30921
01> -43406
00> -30921
01> -43409
00> -30889
01> -43397
00> -30868
01> -43384
00> -30890
01> -43380
00> -30924
01> -43387
00> -30919
01> -43389
00> -30872
01> -43380
00> -30836
01> -43362
00> -30861
01> -43351
00> -30906
01> -43356
00> -30900
01> -43359
00> -30847
01> -43342
00> -30815
01> -43319
00> -30841
01> -43315
00> -30886
01> -43328
00> -30886
01> -43342
00> -30843
01> -43335
00> -30816
01> -43319
00> -30841
01> -43324
00> -30880
01> -43334
00> -30882
01> -43337
00> -30836
01> -43319
00> -30796
01> -43295
00> -30816
01> -43299
00> -30851
01> -43309
00> -30848
01> -43317
00> -30823
01> -43311
00> -30805
01> -43294
00> -30821
01> -43284
00> -30844
01> -43294
00> -30842
01> -43307
00> -30800
01> -43297
00> -30772
01> -43283
00> -30799
01> -43287
00> -30830
01> -43307
00> -30827
01> -43319
00> -30786
01> -43312
00> -30754
01> -43299
00> -30779
01> -43304
00> -30822
01> -43327
00> -30825
01> -43348
00> -30786
01> -43342
00> -30744
01> -43327
00> -30762
01> -43333
00> -30804
01> -43358
00> -30819
01> -43372
00> -30799
01> -43366
00> -30775
01> -43355
00> -30797
01> -43354
00> -30836
01> -43369
00> -30837
01> -43381
00> -30804
01> -43381
00> -30782
01> -43376
00> -30801
01> -43377
00> -30837
01> -43389
00> -30846
01> -43407
00> -30816
01> -43407
00> -30789
01> -43384
00> -30809
01> -43379
00> -30844
01> -43395
00> -30844
01> -43407
00> -30805
01> -43401
00> -30786
01> -43391
00> -30814
01> -43393
00> -30857
01> -43417
00> -30862
01> -43431
00> -30830
01> -43431
00> -30804
01> -43421
00> -30827
01> -43419
00> -30869
01> -43432
00> -30876
01> -43448
00> -30836
01> -43441
00> -30806
01> -43431
00> -30828
01> -43434
00> -30867
01> -43452
00> -30878
01> -43470
00> -30842
01> -43461
00> -30817
01> -43446
00> -30854
01> -43449
00> -30903
01> -43465
00> -30908
01> -43478
00> -30864
01> -43467
00> -30814
01> -43447
00> -30829
01> -43447
00> -30879
01> -43466
00> -30897
01> -43483
00> -30866
01> -43481
00> -30838
01> -43469
00> -30846
01> -43462
00> -30874
01> -43473
00> -30888
01> -43492
00> -30865
01> -43487
00> -30842
01> -43467
00> -30866
01> -43468
00> -30902
01> -43484
00> -30904
01> -43496
00> -30855
01> -43485
00> -30813
01> -43472
00> -30836
01> -43472
00> -30888
01> -43487
00> -30905
01> -43503
00> -30868
01> -43502
00> -30832
01> -43481
00> -30849
01> -43479
00> -30886
01> -43492
00> -30894
01> -43507
00> -30868
01> -43507
00> -30844
01> -43492
00> -30864
01> -43484
00> -30898
01> -43493
00> -30914
01> -43504
00> -30879
01> -43497
00> -30849
01> -43484
00> -30876
01> -43486
00> -30921
01> -43502
00> -30928
01> -43518
00> -30892
01> -43511
00> -30862
01> -43493
00> -30877
01> -43490
00> -30912
01> -43502
00> -30913
01> -43511
00> -30877
01> -43507
00> -30852
01> -43495
00> -30864
01> -43488
00> -30892
01> -43497
00> -30892
01> -43504
00> -30858
01> -43494
00> -30842
01> -43479
00> -30869
01> -43478
00> -30909
01> -43487
00> -30916
01> -43491
00> -30881
01> -43483
00> -30857
01> -43469
00> -30875
01> -43470
00> -30910
01> -43484
00> -30919
01> -43501
00> -30886
01> -43497
00> -30858
01> -43481
00> -30881
01> -43480
00> -30927
01> -43495
00> -30936
01> -43511
00> -30896
01> -43509
00> -30856
01> -43491
00> -30870
01> -43482
00> -30912
01> -43500
00> -30912
01> -43513
00> -30875
01> -43506
00> -30854
01> -43496
00> -30870
01> -43492
00> -30903
01> -43501
00> -30906
01> -43507
00> -30880
01> -43501
00> -30864
01> -43479
00> -30889
01> -43470
00> -30923
01> -43481
00> -30913
01> -43487
00> -30861
01> -43472
00> -30836
01> -43454
00> -30873
01> -43455
00> -30926
01> -43469
00> -30934
01> -43479
00> -30896
01> -43475
00> -30869
01> -43459
00> -30884
01> -43454
00> -30917
01> -43469
00> -30922
01> -43475
00> -30887
01> -43463
00> -30854
01> -43439
00> -30871
01> -43437
00> -30914
01> -43457
00> -30924
01> -43472
00> -30892
01> -43463
00> -30856
01> -43437
00> -30879
01> -43434
00> -30919
01> -43448
00> -30912
01> -43449
00> -30872
01> -43437
00> -30839
01> -43416
00> -30864
01> -43414
00> -30910
01> -43424
00> -30924
01> -43437
00> -30886
01> -43428
00> -30852
01> -43406
00> -30876
01> -43401
00> -30914
01> -43410
00> -30917
01> -43422
00> -30874
01> -43409
00> -30842
01> -43392
00> -30856
01> -43389
00> -30893
01> -43403
00> -30899
01> -43416
00> -30865
01> -43408
00> -30847
01> -43393
00> -30869
01> -43389
00> -30905
01> -43399
00> -30909
01> -43399
00> -30874
01> -43384
00> -30843
01> -43364
00> -30859
01> -43356
00> -30881
01> -43357
00> -30874
01> -43361
00> -30844
01> -43354
00> -30826
01> -43344
00> -30854
01> -43342
00> -30893
01> -43354
00> -30896
01> -43362
00> -30854
01> -43349
00> -30817
01> -43326
00> -30830
01> -43322
00> -30862
01> -43337
00> -30867
01> -43348
00> -30838
01> -43348
00> -30809
01> -43340
00> -30832
01> -43341
00> -30870
01> -43354
00> -30876
01> -43364
00> -30833
01> -43356
00> -30798
01> -43334
00> -30814
01> -43326
00> -30852
01> -43339
00> -30854
01> -43352
00> -30816
01> -43351
00> -30792
01> -43337
00> -30814
01> -43334
00> -30849
01> -43343
00> -30844
01> -43350
00> -30790
01> -43344
00> -30754
01> -43324
00> -30776
01> -43322
00> -30819
01> -43330
00> -30836
01> -43341
00> -30802
01> -43337
00> -30774
01> -43316
00> -30791
01> -43307
00> -30831
01> -43320
00> -30831
01> -43329
00> -30785
01> -43321
00> -30752
01> -43305
00> -30764
01> -43301
00> -30801
01> -43321
00> -30816
01> -43346
00> -30782
01> -43340
00> -30746
01> -43324
00> -30762
01> -43322
00> -30799
01> -43335
00> -30807
01> -43344
00> -30776
01> -43341
00> -30746
01> -43327
00> -30755
