# SEGGER J-Link RTT Viewer V6.62 Terminal Log File
# Compiled: 16:34:01 on Jan 24 2020
# Logging started @ 07 Jun 2024 21:34:07

00> -3799
01> -11269
00> -3756
01> -11192
00> -3711
01> -11116
00> -3714
01> -11124
00> -3762
01> -11222
00> -3777
01> -11252
00> -3736
01> -11177
00> -3685
01> -11089
00> -3681
01> -11079
00> -3732
01> -11174
00> -3733
01> -11206
00> -3702
01> -11152
00> -3671
01> -11088
00> -3673
01> -11096
00> -3724
01> -11189
00> -3737
01> -11218
00> -3696
01> -11153
00> -3657
01> -11088
00> -3674
01> -11111
00> -3744
01> -11216
00> -3762
01> -11249
00> -3727
01> -11194
00> -3684
01> -11121
00> -3680
01> -11104
00> -3732
01> -11200
00> -3747
01> -11233
00> -3722
01> -11175
00> -3690
01> -11114
00> -3699
01> -11121
00> -3756
01> -11217
00> -3777
01> -11256
00> -3752
01> -11211
00> -3719
01> -11141
00> -3728
01> -11147
00> -3776
01> -11246
00> -3786
01> -11272
00> -3749
01> -11211
00> -3712
01> -11146
00> -3716
01> -11144
00> -3772
01> -11244
00> -3791
01> -11280
00> -3752
01> -11216
00> -3708
01> -11140
00> -3704
01> -11127
00> -3753
01> -11216
00> -3768
01> -11243
00> -3727
01> -11165
00> -3687
01> -11091
00> -3692
01> -11096
00> -3747
01> -11199
00> -3767
01> -11234
00> -3736
01> -11181
00> -3693
01> -11114
00> -3692
01> -11108
00> -3747
01> -11208
00> -3774
01> -11247
00> -3738
01> -11188
00> -3701
01> -11114
00> -3705
01> -11112
00> -3761
01> -11214
00> -3774
01> -11255
00> -3742
01> -11191
00> -3711
01> -11118
00> -3714
01> -11106
00> -3761
01> -11200
00> -3772
01> -11241
00> -3744
01> -11183
00> -3717
01> -11117
00> -3714
01> -11114
00> -3766
01> -11202
00> -3784
01> -11236
00> -3754
01> -11178
00> -3714
01> -11102
00> -3711
01> -11094
00> -3754
01> -11185
00> -3776
01> -11226
00> -3754
01> -11167
00> -3715
01> -11093
00> -3707
01> -11077
00> -3759
01> -11176
01> 
00> -3785
01> -11227
00> -3756
01> -11166
00> -3717
01> -11083
00> -3715
01> -11074
00> -3761
01> -11172
00> -3785
01> -11225
00> -3749
01> -11168
00> -3714
01> -11099
00> -3717
01> -11090
00> -3765
01> -11177
00> -3784
01> -11216
00> -3756
01> -11162
00> -3720
01> -11091
00> -3714
01> -11078
00> -3767
01> -11174
00> -3786
01> -11209
00> -3759
01> -11156
00> -3720
01> -11086
00> -3718
01> -11077
00> -3772
01> -11175
00> -3795
01> -11221
00> -3771
01> -11172
00> -3732
01> -11106
00> -3729
01> -11106
00> -3784
01> -11205
00> -3804
01> -11241
00> -3772
01> -11176
00> -3727
01> -11099
00> -3729
01> -11095
00> -3784
01> -11192
00> -3804
01> -11237
00> -3772
01> -11176
00> -3730
01> -11097
00> -3733
01> -11086
00> -3782
01> -11174
00> -3808
01> -11226
00> -3777
01> -11173
00> -3731
01> -11096
00> -3719
01> -11071
00> -3762
01> -11157
00> -3793
01> -11206
00> -3770
01> -11157
00> -3728
01> -11083
00> -3715
01> -11061
00> -3766
01> -11144
00> -3794
01> -11197
00> -3765
01> -11142
00> -3727
01> -11072
00> -3716
01> -11061
00> -3764
01> -11154
00> -3797
01> -11216
00> -3772
01> -11166
00> -3726
01> -11083
00> -3711
01> -11064
00> -3766
01> -11160
00> -3790
01> -11213
00> -3764
01> -11161
00> -3727
01> -11089
00> -3721
01> -11067
00> -3771
01> -11154
00> -3797
01> -11204
00> -3769
01> -11157
00> -3725
01> -11075
00> -3712
01> -11049
00> -3747
01> -11125
00> -3772
01> -11169
00> -3742
01> -11111
00> -3702
01> -11022
00> -3680
01> -10972
00> -3714
01> -11039
00> -3732
01> -11084
00> -3712
01> -11036
00> -3670
01> -10960
00> -3652
01> -10934
00> -3698
01> -11017
00> -3715
01> -11054
00> -3681
01> -10993
00> -3639
01> -10913
00> -3617
01> -10876
00> -3661
01> -10958
00> -3691
01> -11014
00> -3664
01> -10969
00> -3622
01> -10896
00> -3616
01> -10869
00> -3662
01> -10957
00> -3676
01> -11008
00> -3647
01> -10959
00> -3614
01> -10882
00> -3606
01> -10854
00> -3651
01> -10931
00> -3677
01> -10986
00> -3649
01> -10942
00> -3616
01> -10865
00> -3611
01> -10838
00> -3666
01> -10926
00> -3700
01> -10992
00> -3681
01> -10954
00> -3635
01> -10871
00> -3611
01> -10833
00> -3653
01> -10917
00> -3691
01> -10987
00> -3665
01> -10944
00> -3626
01> -10869
00> -3621
01> -10851
00> -3681
01> -10954
00> -3723
01> -11022
00> -3699
01> -10981
00> -3655
01> -10901
00> -3648
01> -10876
00> -3699
01> -10974
00> -3742
01> -11046
00> -3721
01> -11004
00> -3686
01> -10938
00> -3681
01> -10915
00> -3730
01> -10997
00> -3760
01> -11059
00> -3731
01> -11016
00> -3694
01> -10949
00> -3696
01> -10931
00> -3744
01> -11022
00> -3786
01> -11102
00> -3768
01> -11070
00> -3727
01> -10992
00> -3711
01> -10953
00> -3760
01> -11033
00> -3792
01> -11106
00> -3770
01> -11068
00> -3744
01> -11003
00> -3734
01> -10981
00> -3777
01> -11070
00> -3808
01> -11138
00> -3784
01> -11092
00> -3745
01> -11018
00> -3732
01> -10987
00> -3775
01> -11064
00> -3812
00> -6979
01> -10315
00> -6972
01> -10296
00> -7020
01> -10387
00> -7041
01> -10432
00> -7012
01> -10384
00> -6979
01> -10311
00> -6982
01> -10301
00> -7030
01> -10394
00> -7046
01> -10440
00> -7018
01> -10392
00> -6979
01> -10319
00> -6971
01> -10308
00> -7012
01> -10399
00> -7035
01> -10444
00> -7017
01> -10396
00> -6980
01> -10329
00> -6979
01> -10314
00> -7023
01> -10397
00> -7039
01> -10446
00> -7009
01> -10404
00> -6975
01> -10328
00> -6973
01> -10311
00> -7012
01> -10386
00> -7038
01> -10433
00> -7009
01> -10384
00> -6968
01> -10307
00> -6963
01> -10292
00> -7004
01> -10381
00> -7020
01> -10419
00> -6995
01> -10363
00> -6967
01> -10305
00> -6966
01> -10302
00> -7009
01> -10385
00> -7030
01> -10428
00> -6996
01> -10373
00> -6957
01> -10300
00> -6957
01> -10287
00> -7009
01> -10382
00> -7026
01> -10429
00> -7004
01> -10376
00> -6957
01> -10297
00> -6947
01> -10289
00> -6996
01> -10377
00> -7014
01> -10428
00> -6986
01> -10378
00> -6951
01> -10298
00> -6947
01> -10276
00> -7000
01> -10367
00> -7025
01> -10422
00> -6999
01> -10374
00> -6963
01> -10306
00> -6953
01> -10282
00> -6999
01> -10368
00> -7024
01> -10423
00> -6999
01> -10382
00> -6960
01> -10315
00> -6958
01> -10301
00> -7007
01> -10386
00> -7027
01> -10442
00> -7001
01> -10393
00> -6962
01> -10315
00> -6956
01> -10298
00> -7004
01> -10382
00> -7020
01> -10428
00> -6988
01> -10371
00> -6951
01> -10291
00> -6946
01> -10276
00> -7000
01> -10378
00> -7024
01> -10428
00> -6999
01> -10377
00> -6957
01> -10294
00> -6949
01> -10274
00> -6994
01> -10359
00> -7014
01> -10404
00> -7001
01> -10364
00> -6964
01> -10299
00> -6952
01> -10280
00> -6997
01> -10369
00> -7025
01> -10423
00> -7001
01> -10378
00> -6959
01> -10311
00> -6955
01> -10296
00> -7004
01> -10386
00> -7025
01> -10436
00> -6996
01> -10388
00> -6959
01> -10318
00> -6953
01> -10304
00> -7001
01> -10390
00> -7022
01> -10444
00> -7001
01> -10400
00> -6958
01> -10330
00> -6951
01> -10309
00> -6996
01> -10384
00> -7014
01> -10423
00> -6989
01> -10375
00> -6952
01> -10304
00> -6941
01> -10281
00> -6980
01> -10356
00> -7004
01> -10407
00> -6977
01> -10361
00> -6936
01> -10282
00> -6927
01> -10261
00> -6977
01> -10353
00> -7014
01> -10425
00> -6994
01> -10389
00> -6953
01> -10315
00> -6937
01> -10286
00> -6972
01> -10361
00> -6994
01> -10411
00> -6971
01> -10369
00> -6935
01> -10299
00> -6928
01> -10276
00> -6971
01> -10364
00> -6994
01> -10424
00> -6974
01> -10384
00> -6936
01> -10307
00> -6932
01> -10289
00> -6984
01> -10374
00> -7003
01> -10427
00> -6974
01> -10381
00> -6936
01> -10309
00> -6925
01> -10284
00> -6976
01> -10367
00> -7005
01> -10426
00> -6972
01> -10373
00> -6917
01> -10283
00> -6893
01> -10244
00> -6924
01> -10320
00> -6932
01> -10361
00> -6883
01> -10292
00> -6848
01> -10208
00> -6849
01> -10165
00> -6872
01> -10207
00> -6848
01> -10205
00> -6778
01> -10093
00> -6701
01> -9944
00> -6658
01> -9863
00> -6663
01> -9880
00> -6637
01> -9851
00> -6574
01> -9736
00> -6509
01> -9616
00> -6474
01> -9557
00> -6501
01> -9604
00> -6504
01> -9631
00> -6464
01> -9577
00> -6414
01> -9501
00> -6397
01> -9475
00> -6449
01> -9566
00> -6497
01> -9649
00> -6489
01> -9633
00> -6466
01> -9585
00> -6477
01> -9593
00> -6540
01> -9710
00> -6589
01> -9804
00> -6594
01> -9799
00> -6566
01> -9744
00> -6572
01> -9743
00> -6637
01> -9847
00> -6680
01> -9932
00> -6681
01> -9926
00> -6655
01> -9882
00> -6657
01> -9884
00> -6726
01> -9992
00> -6763
01> -10062
00> -6741
01> -10032
00> -6716
01> -9970
00> -6712
01> -9961
00> -6770
01> -10061
00> -6806
01> -10134
00> -6786
01> -10100
00> -6753
01> -10025
00> -6754
01> -10007
00> -6804
01> -10100
00> -6834
01> -10175
00> -6820
01> -10137
00> -6787
01> -10076
00> -6775
01> -10059
00> -6823
01> -10150
00> -6860
01> -10219
00> -6843
01> -10186
00> -6814
01> -10127
00> -6809
01> -10114
00> -6857
01> -10199
00> -6887
01> -10260
00> -6866
01> -10223
00> -6831
01> -10156
00> -6822
01> -10139
00> -6871
01> -10229
00> -6904
01> -10294
00> -6886
01> -10266
00> -6851
01> -10194
00> -6838
01> -10167
00> -6886
01> -10249
00> -6914
01> -10312
00> -6901
01> -10282
00> -6865
01> -10221
00> -6852
01> -10192
00> -6896
01> -10269
00> -6922
01> -10326
00> -6902
01> -10284
00> -6859
01> -10211
00> -6854
01> -10187
00> -6897
01> -10273
00> -6929
01> -10332
00> -6907
01> -10287
00> -6868
01> -10216
00> -6861
01> -10195
00> -6904
01> -10274
00> -6935
01> -10337
00> -6915
01> -10302
00> -6879
01> -10231
00> -6875
01> -10211
00> -6922
01> -10295
00> -6945
01> -10356
00> -6926
01> -10314
00> -6885
01> -10236
00> -6862
01> -10205
00> -6906
01> -10283
00> -6939
01> -10349
00> -6924
01> -10320
00> -6886
01> -10250
00> -6871
01> -10219
00> -6912
01> -10287
00> -6938
01> -10345
00> -6912
01> -10305
00> -6876
01> -10236
00> -6864
01> -10211
00> -6910
01> -10287
00> -6939
01> -10347
00> -6919
01> -10310
00> -6886
01> -10237
00> -6873
01> -10206
00> -6915
01> -10283
00> -6946
01> -10350
00> -6930
01> -10317
00> -6899
01> -10254
00> -6889
01> -10229
00> -6926
01> -10297
00> -6947
01> -10354
00> -6927
01> -10317
00> -6895
01> -10257
00> -6887
01> -10237
00> -6924
01> -10309
00> -6950
01> -10366
00> -6927
01> -10326
00> -6895
01> -10256
00> -6878
01> -10224
00> -6921
01> -10297
00> -6954
01> -10366
00> -6934
01> -10334
00> -6897
01> -10272
00> -6883
01> -10245
00> -6917
01> -10306
00> -6946
01> -10361
00> -6926
01> -10323
00> -6889
01> -10256
00> -6883
01> -10234
00> -6923
01> -10307
00> -6952
01> -10380
00> -6937
01> -10358
00> -6902
01> -10291
00> -6881
01> -10254
00> -6921
01> -10317
00> -6947
01> -10371
00> -6927
01> -10331
00> -6896
01> -10269
00> -6884
01> -10251
00> -6923
01> -10318
00> -6950
01> -10374
00> -6930
01> -10346
00> -6892
01> -10279
00> -6877
01> -10247
00> -6911
01> -10309
00> -6929
01> -10359
00> -6912
01> -10336
00> -6887
01> -10281
00> -6882
01> -10261
00> -6919
01> -10325
00> -6932
01> -10370
00> -6912
01> -10340
00> -6886
01> -10282
00> -6880
01> -10259
00> -6915
01> -10322
00> -6939

00> -6922
01> -10347
00> -6893
01> -10291
00> -6878
01> -10259
00> -6902
01> -10301
00> -6930
01> -10357
00> -6917
01> -10332
00> -6891
01> -10289
00> -6884
01> -10264
00> -6912
01> -10312
00> -6933
01> -10365
00> -6912
01> -10331
00> -6891
01> -10277
00> -6879
01> -10256
00> -6902
01> -10311
00> -6923
01> -10353
00> -6910
01> -10325
00> -6892
01> -10274
00> -6876
01> -10244
00> -6906
01> -10296
00> -6922
01> -10339
00> -6913
01> -10322
00> -6893
01> -10284
00> -6877
01> -10257
00> -6900
01> -10297
00> -6924
01> -10344
00> -6914
01> -10321
00> -6888
01> -10276
00> -6873
01> -10251
00> -6900
01> -10296
00> -6922
01> -10347
00> -6907
01> -10332
00> -6882
01> -10282
00> -6879
01> -10264
00> -6904
01> -10314
00> -6926
01> -10359
00> -6916
01> -10339
00> -6887
01> -10284
00> -6870
01> -10249
00> -6902
01> -10298
00> -6929
01> -10350
00> -6919
01> -10336
00> -6894
01> -10289
00> -6874
01> -10252
00> -6897
01> -10291
00> -6914
01> -10336
00> -6902
01> -10318
00> -6877
01> -10265
00> -6871
01> -10244
00> -6907
01> -10301
00> -6932
01> -10352
00> -6921
01> -10336
00> -6896
01> -10277
00> -6883
01> -10246
00> -6910
01> -10291
00> -6931
01> -10339
00> -6918
01> -10326
00> -6882
01> -10277
00> -6873
01> -10251
00> -6904
01> -10297
00> -6929
01> -10347
00> -6917
01> -10326
00> -6894
01> -10279
00> -6881
01> -10251
00> -6902
01> -10297
00> -6922
01> -10343
00> -6906
01> -10326
00> -6881
01> -10276
00> -6872
01> -10249
00> -6903
01> -10300
00> -6931
01> -10349
00> -6913
01> -10320
00> -6887
01> -10274
00> -6872
01> -10246
00> -6897
01> -10301
00> -6925
01> -10348
00> -6916
01> -10326
00> -6882
01> -10267
00> -6869
01> -10237
00> -6899
01> -10294
00> -6924
01> -10355
00> -6917
01> -10335
00> -6889
01> -10278
00> -6874
01> -10249
00> -6896
01> -10299
00> -6924
01> -10356
00> -6914
01> -10337
00> -6889
01> -10291
00> -6874
01> -10261
00> -6905
01> -10309
00> -6936
01> -10373
00> -6932
01> -10362
00> -6899
01> -10308
00> -6880
01> -10267
00> -6906
01> -10314
00> -6936
01> -10371
00> -6923
01> -10348
00> -6898
01> -10297
00> -6887
01> -10271
00> -6912
01> -10319
00> -6934
01> -10371
00> -6923
01> -10349
00> -6887
01> -10286
00> -6866
01> -10250
00> -6892
01> -10296
00> -6919
01> -10346
00> -6906
01> -10327
00> -6884
01> -10279
00> -6870
01> -10251
00> -6901
01> -10298
00> -6929
01> -10344
00> -6918
01> -10337
00> -6888
01> -10296
00> -6871
01> -10259
00> -6901
01> -10307
00> -6925
01> -10366
00> -6916
01> -10353
00> -6891
01> -10294
00> -6871
01> -10259
00> -6904
01> -10308
00> -6924
01> -10364
00> -6916
01> -10342
00> -6891
01> -10286
00> -6871
01> -10253
00> -6896
01> -10304
00> -6931
01> -10365
00> -6919
01> -10343
00> -6887
01> -10282
00> -6867
01> -10240
00> -6897
01> -10293
00> -6923
01> -10355
00> -6911
01> -10342
00> -6881
01> -10280
00> -6857
01> -10234
00> -6884
01> -10278
00> -6917
01> -10346
00> -6913
01> -10332
00> -6891
01> -10282
00> -6872
01> -10254
00> -6899
01> -10304
00> -6924
01> -10357
00> -6909
01> -10333
00> -6881
01> -10279
00> -6866
01> -10250
00> -6896
01> -10305
00> -6922
01> -10364
00> -6908
01> -10341
00> -6881
01> -10284
00> -6865
01> -10249
00> -6894
01> -10302
00> -6922
01> -10357
00> -6912
01> -10334
00> -6881
01> -10276
00> -6863
01> -10239
00> -6889
01> -10286
00> -6917
01> -10344
00> -6908
01> -10328
00> -6882
01> -10276
00> -6873
01> -10247
00> -6901
01> -10296
00> -6922
01> -10354
00> -6906
01> -10330
00> -6881
01> -10277
00> -6862
01> -10249
00> -6889
01> -10296
00> -6921
01> -10352
00> -6911
01> -10338
00> -6877
01> -10282
00> -6857
01> -10242
00> -6881
01> -10293
00> -6916
01> -10360
00> -6911
01> -10345
00> -6884
01> -10284
00> -6868
01> -10248
00> -6891
01> -10294
00> -6921
01> -10355
00> -6916
01> -10334
00> -6882
01> -10278
00> -6863
01> -10242
00> -6886
01> -10286
00> -6912
01> -10344
00> -6904
01> -10327
00> -6877
01> -10274
00> -6861
01> -10241
00> -6890
01> -10292
00> -6916
01> -10348
00> -6901
01> -10330
00> -6866
01> -10268
00> -6849
01> -10235
00> -6883
01> -10286
00> -6911
01> -10346
00> -6900
01> -10329
00> -6877
01> -10280
00> -6863
01> -10247
00> -6896
01> -10296
00> -6922
01> -10356
00> -6906
01> -10328
00> -6879
01> -10274
00> -6866
01> -10244
00> -6896
01> -10296
00> -6921
01> -10355
00> -6904
01> -10334
00> -6879
01> -10271
00> -6865
01> -10234
00> -6891
01> -10289
00> -6920
01> -10353
00> -6911
01> -10339
00> -6881
01> -10284
00> -6861
01> -10241
00> -6888
01> -10288
00> -6916
01> -10347
00> -6904
01> -10331
00> -6871
01> -10270
00> -6856
01> -10239
00> -6885
01> -10286
00> -6912
01> -10344
00> -6901
01> -10329
00> -6870
01> -10278
00> -6851
01> -10240
00> -6875
01> -10272
00> -6908
01> -10333
00> -6902
01> -10322
00> -6879
01> -10274
00> -6862
01> -10247
00> -6884
01> -10289
00> -6912
01> -10339
00> -6904
01> -10321
00> -6874
01> -10272
00> -6863
01> -10242
00> -6889
01> -10292
00> -6915
01> -10352
00> -6898
01> -10322
00> -6868
01> -10264
00> -6854
01> -10237
00> -6889
01> -10295
00> -6925
01> -10363
00> -6917
01> -10347
00> -6887
01> -10284
00> -6867
01> -10244
00> -6894
01> -10297
00> -6923
01> -10360
00> -6914
01> -10339
00> -6886
01> -10285
00> -6867
01> -10246
00> -6896
01> -10289
00> -6918
01> -10350
00> -6902
01> -10326
00> -6875
01> -10271
00> -6860
01> -10234
00> -6886
01> -10281
00> -6921
01> -10347
00> -6912
01> -10331
00> -6881
01> -10276
00> -6863
01> -10239
00> -6889
01> -10286
00> -6914
01> -10343
00> -6906
01> -10327
00> -6879
01> -10280
00> -6862
01> -10243
00> -6877
01> -10276
00> -6900
01> -10337
00> -6892
01> -10329
00> -6871
01> -10287
00> -6854
01> -10253
00> -6880
01> -10294
00> -6904
01> -10355
00> -6897
01> -10339
00> -6874
01> -10291
00> -6856
01> -10267
00> -6886
01> -10315
00> -6919
01> -10371
00> -6909
01> -10354
00> -6879
01> -10288
00> -6860
01> -10252
00> -6879
01> -10293
00> -6906
01> -10349
00> -6902
01> -10341
00> -6872
01> -10290
00> -6852
01> -10252
00> -6881
01> -10291
00> -6913
01> -10352
00> -6904
01> -10343
00> -6879
01> -10296
00> -6860
01> -10255
00> -6881
01> -10292
00> -6907
01> -10351
00> -6898
01> -10334
00> -6873
01> -10282
00> -6856
01> -10252
00> -6879
01> -10304
00> -6905
01> -10362
00> -6898
01> -10351
00> -6870
01> -10298
00> -6852
01> -10257
00> -6874
01> -10294
00> -6906
01> -10361
00> -6892
01> -10351
00> -6870
01> -10301
00> -6851
01> -10266
00> -6869
01> -10296
00> -6897
01> -10346
00> -6884
01> -10325
00> -6859
01> -10278
00> -6842
01> -10246
00> -6869
01> -10291
00> -6896
01> -10347
00> -6891
01> -10339
00> -6874
01> -10300
00> -6857
01> -10266
00> -6875
01> -10297
00> -6894
01> -10339
00> -6881
01> -10323
00> -6858
01> -10274
00> -6844
01> -10246
00> -6868
01> -10292
00> -6897
01> -10349
00> -6892
01> -10339
00> -6869
01> -10291
00> -6853
01> -10262
00> -6877
01> -10298
00> -6901
01> -10347
00> -6892
01> -10336
00> -6867
01> -10294
00> -6850
01> -10256
00> -6870
01> -10289
00> -6894
01> -10338
00> -6879
01> -10319
00> -6856
01> -10270
00> -6840
01> -10236
00> -6869
01> -10286
00> -6896
01> -10341
00> -6886
01> -10328
00> -6861
01> -10291
00> -6846
01> -10262
00> -6873
01> -10296
00> -6901
01> -10349
00> -6896
01> -10340
00> -6869
01> -10297
00> -6853
01> -10259
00> -6875
01> -10296
00> -6898
01> -10347
00> -6889
01> -10335
00> -6866
01> -10292
00> -6852
01> -10263
00> -6873
01> -10288
00> -6897
01> -10337
00> -6889
01> -10323
00> -6866
01> -10281
00> -6854
01> -10252
00> -6874
01> -10287
00> -6902
01> -10348
00> -6902
01> -10344
00> -6874
01> -10293
00> -6852
01> -10251
00> -6866
01> -10276
00> -6893
01> -10329
00> -6894
01> -10327
00> -6870
01> -10295
00> -6849
01> -10262
00> -6871
01> -10302
00> -6901
01> -10359
00> -6893
01> -10344
00> -6872
01> -10300
00> -6851
01> -10259
00> -6864
01> -10282
00> -6886
01> -10341
00> -6886
01> -10338
00> -6859
01> -10291
00> -6841
01> -10258
00> -6857
01> -10297
00> -6887
01> -10351
00> -6882
01> -10347
00> -6859
01> -10299
00> -6842
01> -10264
00> -6863
01> -10298
00> -6894
01> -10354
00> -6888
01> -10344
00> -6863
01> -10294
00> -6840
01> -10249
00> -6858
01> -10271
00> -6886
01> -10319
00> -6877
01> -10314
00> -6856
01> -10282
00> -6837
01> -10243
00> -6856
01> -10274
00> -6886
01> -10335
00> -6887
01> -10326
00> -6864
01> -10286
00> -6838
01> -10252
00> -6856
01> -10282
00> -6887
01> -10334
00> -6876
01> -10321
00> -6854
01> -10276
00> -6837
01> -10240
00> -6858
01> -10275
00> -6886
01> -10336
00> -6887
01> -10333
00> -6872
01> -10299
00> -6853
01> -10255
00> -6868
01> -10276
00> -6891
01> -10332
00> -6884
01> -10331
00> -6860
01> -10281
00> -6838
01> -10237
00> -6859
01> -10272
00> -6889
01> -10341
00> -6889
01> -10340
00> -6867
01> -10299
00> -6852
01> -10262
00> -6872
01> -10294
00> -6897
01> -10355
00> -6889
01> -10347
00> -6860
01> -10286
00> -6839
01> -10252
00> -6869
01> -10297
00> -6899
01> -10368
00> -6898
01> -10364
00> -6874
01> -10314
00> -6861
01> -10276
00> -6876
01> -10301
00> -6895
01> -10352
00> -6887
01> -10342
00> -6861
01> -10302
00> -6847
01> -10267
00> -6863
01> -10297
00> -6893
01> -10356
00> -6893
01> -10352
00> -6868
01> -10303
00> -6846
01> -10259
00> -6861
01> -10284
00> -6887
01> -10343
00> -6887
01> -10345
00> -6870
01> -10301
00> -6849
01> -10257
00> -6859
01> -10279
00> -6882
01> -10336
00> -6880
01> -10329
00> -6858
01> -10286
00> -6841
01> -10257
00> -6861
01> -10291
00> -6886
01> -10343
00> -6886
01> -10342
00> -6867
01> -10299
00> -6839
01> -10251
00> -6861
01> -10284
00> -6892
01> -10347
00> -6885
01> -10339
00> -6859
01> -10288
00> -6842
01> -10245
00> -6861
01> -10282
00> -6898
01> -10347
00> -6887
01> -10340
00> -6857
01> -10289
00> -6837
01> -10243
00> -6856
01> -10276
00> -6884
01> -10332
00> -6881
01> -10328
00> -6862
01> -10287
00> -6844
01> -10255
00> -6862
01> -10282
00> -6893
01> -10346
00> -6888
01> -10342
00> -6856
01> -10290
00> -6832
01> -10244
00> -6848
01> -10276
00> -6878
01> -10340
00> -6882
01> -10337
00> -6868
01> -10301
00> -6842
01> -10262
00> -6854
01> -10286
00> -6882
01> -10350
00> -6877
01> -10342
00> -6851
01> -10283
00> -6831
01> -10241
00> -6846
01> -10271
00> -6875
01> -10328
00> -6878
01> -10325
00> -6854
01> -10285
00> -6829
01> -10242
00> -6849
01> -10271
00> -6886
01> -10337
00> -6884
01> -10341
00> -6855
01> -10289
00> -6827
01> -10231
00> -6837
01> -10251
00> -6873
01> -10317
00> -6875
01> -10313
00> -6851
01> -10271
00> -6825
01> -10232
00> -6843
01> -10264
00> -6877
01> -10332
00> -6868
01> -10332
00> -6845
01> -10289
00> -6828
01> -10251
00> -6849
01> -10282
00> -6877
01> -10332
00> -6870
01> -10321
00> -6852
01> -10281
00> -6835
01> -10247
00> -6848
01> -10269
00> -6879

00> -6877
01> -10333
00> -6851
01> -10279
00> -6836
01> -10242
00> -6855
01> -10271
00> -6884
01> -10324
00> -6881
01> -10322
00> -6856
01> -10268
00> -6835
01> -10225
00> -6852
01> -10259
00> -6875
01> -10322
00> -6868
01> -10314
00> -6847
01> -10276
00> -6834
01> -10241
00> -6855
01> -10270
00> -6887
01> -10332
00> -6884
01> -10322
00> -6859
01> -10280
00> -6834
01> -10246
00> -6855
01> -10276
00> -6891
01> -10337
00> -6891
01> -10336
00> -6870
01> -10297
00> -6844
01> -10242
00> -6856
01> -10259
00> -6883
01> -10324
00> -6879
01> -10320
00> -6854
01> -10270
00> -6841
01> -10231
00> -6860
01> -10264
00> -6888
01> -10326
00> -6881
01> -10319
00> -6852
01> -10271
00> -6831
01> -10227
00> -6846
01> -10250
00> -6877
01> -10315
00> -6881
01> -10317
00> -6853
01> -10269
00> -6822
01> -10226
00> -6837
01> -10247
00> -6866
01> -10311
00> -6864
01> -10311
00> -6850
01> -10273
00> -6835
01> -10240
00> -6854
01> -10276
00> -6886
01> -10339
00> -6880
01> -10334
00> -6854
01> -10284
00> -6830
01> -10239
00> -6846
01> -10267
00> -6883
01> -10337
00> -6882
01> -10335
00> -6859
01> -10282
00> -6844
01> -10240
00> -6859
01> -10261
00> -6887
01> -10320
00> -6884
01> -10312
00> -6857
01> -10269
00> -6832
01> -10229
00> -6851
01> -10253
00> -6881
01> -10313
00> -6881
01> -10312
00> -6854
01> -10265
00> -6833
01> -10222
00> -6842
01> -10238
00> -6871
01> -10297
00> -6881
01> -10307
00> -6857
01> -10277
00> -6834
01> -10237
00> -6852
01> -10262
00> -6886
01> -10332
00> -6886
01> -10336
00> -6862
01> -10288
00> -6846
01> -10250
00> -6861
01> -10271
00> -6887
01> -10330
00> -6881
01> -10321
00> -6858
01> -10266
00> -6836
01> -10224
00> -6853
01> -10257
00> -6882
01> -10318
00> -6879
01> -10314
00> -6853
01> -10267
00> -6833
01> -10227
00> -6847
01> -10244
00> -6878
01> -10307
00> -6869
01> -10301
00> -6845
01> -10251
00> -6829
01> -10210
00> -6843
01> -10246
00> -6874
01> -10315
00> -6872
01> -10311
00> -6847
01> -10260
00> -6826
01> -10217
00> -6841
01> -10244
00> -6876
01> -10304
00> -6872
01> -10302
00> -6848
01> -10261
00> -6839
01> -10231
00> -6862
01> -10257
00> -6891
01> -10328
00> -6887
01> -10326
00> -6867
01> -10279
00> -6849
01> -10237
00> -6860
01> -10257
00> -6889
01> -10314
00> -6881
01> -10304
00> -6849
01> -10249
00> -6820
01> -10206
00> -6835
01> -10231
00> -6871
01> -10299
00> -6867
01> -10302
00> -6848
01> -10266
00> -6832
01> -10232
00> -6847
01> -10252
00> -6879
01> -10314
00> -6873
01> -10317
00> -6847
01> -10277
00> -6824
01> -10238
00> -6846
01> -10271
00> -6882
01> -10332
00> -6883
01> -10339
00> -6862
01> -10302
00> -6832
01> -10247
00> -6842
01> -10264
00> -6874
01> -10323
00> -6879
01> -10332
00> -6859
01> -10287
00> -6834
01> -10246
00> -6850
01> -10262
00> -6880
01> -10321
00> -6881
01> -10317
00> -6863
01> -10271
00> -6842
01> -10231
00> -6859
01> -10247
00> -6886
01> -10305
00> -6877
01> -10297
00> -6849
01> -10253
00> -6827
01> -10215
00> -6844
01> -10236
00> -6879
01> -10304
00> -6872
01> -10307
00> -6847
01> -10270
00> -6836
01> -10239
00> -6853
01> -10263
00> -6889
01> -10321
00> -6888
01> -10328
00> -6867
01> -10292
00> -6847
01> -10253
00> -6863
01> -10272
00> -6891
01> -10332
00> -6886
01> -10337
00> -6864
01> -10292
00> -6842
01> -10243
00> -6855
01> -10259
00> -6882
01> -10320
00> -6878
01> -10319
00> -6857
01> -10276
00> -6841
01> -10239
00> -6861
01> -10262
00> -6891
01> -10321
00> -6879
01> -10312
00> -6854
01> -10258
00> -6827
01> -10217
00> -6837
01> -10237
00> -6869
01> -10302
00> -6866
01> -10311
00> -6851
01> -10286
00> -6837
01> -10253
00> -6842
01> -10262
00> -6866
01> -10310
00> -6866
01> -10317
00> -6846
01> -10280
00> -6830
01> -10248
00> -6837
01> -10264
00> -6862
01> -10314
00> -6864
01> -10321
00> -6846
01> -10281
00> -6825
01> -10242
00> -6837
01> -10259
00> -6872
01> -10318
00> -6871
01> -10325
00> -6856
01> -10286
00> -6840
01> -10252
00> -6844
01> -10273
00> -6868
01> -10320
00> -6873
01> -10326
00> -6858
01> -10295
00> -6839
01> -10249
00> -6851
01> -10267
00> -6874
01> -10315
00> -6869
01> -10310
00> -6845
01> -10269
00> -6830
01> -10243
00> -6839
01> -10262
00> -6872
01> -10322
00> -6876
01> -10332
00> -6849
01> -10289
00> -6832
01> -10246
00> -6847
01> -10268
00> -6873
01> -10325
00> -6870
01> -10332
00> -6851
01> -10299
00> -6827
01> -10256
00> -6835
01> -10262
00> -6866
01> -10314
00> -6874
01> -10321
00> -6853
01> -10279
00> -6827
01> -10239
00> -6834
01> -10252
00> -6865
01> -10322
00> -6866
01> -10322
00> -6849
01> -10284
00> -6834
01> -10248
00> -6847
01> -10262
00> -6873
01> -10322
00> -6876
01> -10331
00> -6861
01> -10297
00> -6839
01> -10257
00> -6848
01> -10266
00> -6881
01> -10324
00> -6886
01> -10338
00> -6870
01> -10305
00> -6849
01> -10270
00> -6854
01> -10280
00> -6884
01> -10332
00> -6888
01> -10333
00> -6864
01> -10298
00> -6842
01> -10253
00> -6852
01> -10269
00> -6883
01> -10324
00> -6886
01> -10327
00> -6864
01> -10284
00> -6840
01> -10241
00> -6841
01> -10245
00> -6869
01> -10301
00> -6871
01> -10305
00> -6854
01> -10266
00> -6832
01> -10226
00> -6839
01> -10240
00> -6869
01> -10305
00> -6876
01> -10324
00> -6856
01> -10292
00> -6832
01> -10252
00> -6847
01> -10273
00> -6879
01> -10331
00> -6882
01> -10325
00> -6860
01> -10282
00> -6841
01> -10242
00> -6851
01> -10255
00> -6871
01> -10317
00> -6871
01> -10329
00> -6852
01> -10294
00> -6832
01> -10249
00> -6842
01> -10264
00> -6874
01> -10322
00> -6872
01> -10319
00> -6849
01> -10277
00> -6828
01> -10241
00> -6844
01> -10261
00> -6874
01> -10325
00> -6882
01> -10329
00> -6866
01> -10297
00> -6844
01> -10261
00> -6842
01> -10254
00> -6869
01> -10301
00> -6867
01> -10312
00> -6842
01> -10276
00> -6821
01> -10242
00> -6831
01> -10252
00> -6864
01> -10312
00> -6871
01> -10322
00> -6847
01> -10281
00> -6826
01> -10241
00> -6837
01> -10256
00> -6872
01> -10317
00> -6876
01> -10331
00> -6850
01> -10291
00> -6827
01> -10242
00> -6827
01> -10242
00> -6861
01> -10305
00> -6864
01> -10317
00> -6843
01> -10282
00> -6832
01> -10254
00> -6844
01> -10273
00> -6873
01> -10326
00> -6873
01> -10327
00> -6854
01> -10284
00> -6837
01> -10254
00> -6851
01> -10274
00> -6879
01> -10332
00> -6876
01> -10342
00> -6853
01> -10302
00> -6829
01> -10254
00> -6840
01> -10255
00> -6865
01> -10304
00> -6864
01> -10311
00> -6845
01> -10273
00> -6822
01> -10231
00> -6832
01> -10249
00> -6866
01> -10311
00> -6871
01> -10318
00> -6855
01> -10284
00> -6833
01> -10237
00> -6839
01> -10241
00> -6868
01> -10298
00> -6864
01> -10307
00> -6842
01> -10272
00> -6831
01> -10241
00> -6839
01> -10261
00> -6868
01> -10324
00> -6873
01> -10336
00> -6847
01> -10289
00> -6821
01> -10241
00> -6827
01> -10250
00> -6866
01> -10321
00> -6872
01> -10329
00> -6854
01> -10297
00> -6841
01> -10263
00> -6849
01> -10267
00> -6870
01> -10322
00> -6867
01> -10320
00> -6841
01> -10269
00> -6816
01> -10221
00> -6824
01> -10227
00> -6848
01> -10276
00> -6856
01> -10294
00> -6839
01> -10266
00> -6824
01> -10234
00> -6832
01> -10252
00> -6859
01> -10308
00> -6866
01> -10322
00> -6847
01> -10289
00> -6833
01> -10257
00> -6835
01> -10261
00> -6861
01> -10315
00> -6866
01> -10336
00> -6852
01> -10304
00> -6824
01> -10257
00> -6827
01> -10267
00> -6859
01> -10324
00> -6869
01> -10332
00> -6857
01> -10302
00> -6841
01> -10261
00> -6840
01> -10261
00> -6864
01> -10311
00> -6875
01> -10322
00> -6857
01> -10292
00> -6841
01> -10259
00> -6838
01> -10259
00> -6857
01> -10301
00> -6862
01> -10301
00> -6850
01> -10266
00> -6826
01> -10224
00> -6832
01> -10235
00> -6863
01> -10307
00> -6863
01> -10324
00> -6846
01> -10291
00> -6827
01> -10251
00> -6839
01> -10270
00> -6868
01> -10326
00> -6869
01> -10341
00> -6849
01> -10306
00> -6833
01> -10273
00> -6836
01> -10275
00> -6862
01> -10316
00> -6876
01> -10337
00> -6861
01> -10308
00> -6831
01> -10256
00> -6830
01> -10247
00> -6859
01> -10296
00> -6860
01> -10301
00> -6841
01> -10267
00> -6822
01> -10227
00> -6828
01> -10232
00> -6852
01> -10287
00> -6850
01> -10286
00> -6831
01> -10249
00> -6809
01> -10212
00> -6817
01> -10225
00> -6854
01> -10295
00> -6864
01> -10314
00> -6849
01> -10281
00> -6828
01> -10244
00> -6826
01> -10246
00> -6844
01> -10294
00> -6849
01> -10302
00> -6836
01> -10276
00> -6821
01> -10242
00> -6826
01> -10246
00> -6851
01> -10292
00> -6858
01> -10303
00> -6846
01> -10274
00> -6833
01> -10251
00> -6838
01> -10252
00> -6864
01> -10304
00> -6868
01> -10322
00> -6842
01> -10277
00> -6816
01> -10227
00> -6819
01> -10231
00> -6851
01> -10286
00> -6851
01> -10291
00> -6832
01> -10250
00> -6814
01> -10219
00> -6818
01> -10229
00> -6848
01> -10286
00> -6857
01> -10301
00> -6837
01> -10262
00> -6812
01> -10221
00> -6810
01> -10223
00> -6832
01> -10283
00> -6851
01> -10307
00> -6833
01> -10268
00> -6808
01> -10227
00> -6819
01> -10239
00> -6852
01> -10297
00> -6861
01> -10311
00> -6852
01> -10289
00> -6837
01> -10264
00> -6838
01> -10270
00> -6863
01> -10315
00> -6877
01> -10327
00> -6861
01> -10290
00> -6837
01> -10246
00> -6837
01> -10241
00> -6854
01> -10294
00> -6856
01> -10304
00> -6844
01> -10275
00> -6832
01> -10241
00> -6839
01> -10256
00> -6866
01> -10313
00> -6869
01> -10328
00> -6844
01> -10281
00> -6824
01> -10232
00> -6817
01> -10229
00> -6841
01> -10283
00> -6852
01> -10296
00> -6839
01> -10267
00> -6822
01> -10236
00> -6829
01> -10244
00> -6859
01> -10297
00> -6870
01> -10314
00> -6849
01> -10279
00> -6819
01> -10224
00> -6816
01> -10226
00> -6850
01> -10283
00> -6867
01> -10307
00> -6851
01> -10281
00> -6826
01> -10239
00> -6826
01> -10239
00> -6856
01> -10282
00> -6868
01> -10302
00> -6849
01> -10268
00> -6822
01> -10219
00> -6826
01> -10220
00> -6856
01> -10276
00> -6863
01> -10297
00> -6843
01> -10266
00> -6819
01> -10217
00> -6824
01> -10220
00> -6861
01> -10290
00> -6869
01> -10312
00> -6849
01> -10278
00> -6827
01> -10241
00> -6834
01> -10252
00> -6862
01> -10299
00> -6870
01> -10307
00> -6844
01> -10261
00> -6825
01> -10222
00> -6830
01> -10214
00> -6861
01> -10268
00> -6863
01> -10280
00> -6839
01> -10238
00> -6812
01> -10198
00> -6817
01> -10201
00> -6849
01> -10257
00> -6854
01> -10276
00> -6839
01> -10241
00> -6824
01> -10205
00> -6832
01> -10214
00> -6859
01> -10263
00> -6864
01> -10284
00> -6844
01> -10254
00> -6822
01> -10209
00> -6830
01> -10218
00> -6861
01> -10289
00> -6867
01> -10309
00> -6847
01> -10267
00> -6822
01> -10216
00> -6815
01> -10217
00> -6846
01> -10275
00> -6854
01> -10292
00> -6841
01> -10263
00> -6824
01> -10223
00> -6823
01> -10212
00> -6845
01> -10255
00> -6849
01> -10267
00> -6832
01> -10232
00> -6815
01> -10199
00> -6815
01> -10194
00> -6842
01> -10246
00> -6851
01> -10272
00> -6832
01> -10231
00> -6809
01> -10187
00> -6804
01> -10190
00> -6831
01> -10249
00> -6841
01> -10272
00> -6828
01> -10242
00> -6811
01> -10206
00> -6819
01> -10221
00> -6845
01> -10285
00> -6851
01> -10301
00> -6831
01> -10255
00> -6806
01> -10205
00> -6809
01> -10207
00> -6837
01> -10266
00> -6844
01> -10290
00> -6827
01> -10254
00> -6809
01> -10206
00> -6816
01> -10209
00> -6846
01> -10259
00> -6852
01> -10272
00> -6834
01> -10238
00> -6807
01> -10191
00> -6807
01> -10194
00> -6839
01> -10254
00> -6843
01> -10270
00> -6830
01> -10237
00> -6808
01> -10195
00> -6807
01> -10191
00> -6839
01> -10251
00> -6847
01> -10279
00> -6827
01> -10241
00> -6797
01> -10191
00> -6801
01> -10196
00> -6834
01> -10261
00> -6847
01> -10287
00> -6834
01> -10260
00> -6814
01> -10221
00> -6814
01> -10212
00> -6839
01> -10264
00> -6849
01> -10290
00> -6822
01> -10247
00> -6803
01> -10207
00> -6804
01> -10206
00> -6837
01> -10264
00> -6839
01> -10276
00> -6818
01> -10234
00> -6797
01> -10192
00> -6804
01> -10196
00> -6842
01> -10256
00> -6852
01> -10279
00> -6831
01> -10247
00> -6805
01> -10204
00> -6806
01> -10204
00> -6843
01> -10266
00> -6851
01> -10287
00> -6826
01> -10252
00> -6797
01> -10202
00> -6801
01> -10203
00> -6830
01> -10257
00> -6839
01> -10274
00> -6822
01> -10237
00> -6806
01> -10196
00> -6804
01> -10189
00> -6832
01> -10241
00> -6846
01> -10262
00> -6832
01> -10234
00> -6811
01> -10189
00> -6807
01> -10182
00> -6833
01> -10239
00> -6842
01> -10257
00> -6826
01> -10225
00> -6802
01> -10184
00> -6802
01> -10190
00> -6839
01> -10252
00> -6852
01> -10276
00> -6836
01> -10237
00> -6809
01> -10194
00> -6814
01> -10197
00> -6846
01> -10259
00> -6852
01> -10285
00> -6823
01> -10243
00> -6796
01> -10188
00> -6799
01> -10187
00> -6837
01> -10257
00> -6854
01> -10281
00> -6835
01> -10240
00> -6814
01> -10196
00> -6809
01> -10186
00> -6837
01> -10244
00> -6848
01> -10281
00> -6827
01> -10246
00> -6807
01> -10197
00> -6805
01> -10192
00> -6834
01> -10250
00> -6844
01> -10271
00> -6827
01> -10238
00> -6816
01> -10197
00> -6821
01> -10197
00> -6849
01> -10261
00> -6862
01> -10292
00> -6849
01> -10257
00> -6826
01> -10212
00> -6819
01> -10199
00> -6856
01> -10254
00> -6862
01> -10273
00> -6839
01> -10237
00> -6817
01> -10186
00> -6819
01> -10192
00> -6852
01> -10259
00> -6857
01> -10276
00> -6839
01> -10241
00> -6804
01> -10185
00> -6808
01> -10176
00> -6837
01> -10235
00> -6846
01> -10259
00> -6824
01> -10222
00> -6795
01> -10175
00> -6800
01> -10175
00> -6836
01> -10241
00> -6847
01> -10273
00> -6834
01> -10242
00> -6815
01> -10209
00> -6817
01> -10207
00> -6849
01> -10263
00> -6856
01> -10286
00> -6837
01> -10259
00> -6816
01> -10209
00> -6816
01> -10200
00> -6845
01> -10262
00> -6854
01> -10289
00> -6836
01> -10254
00> -6811
01> -10207
00> -6807
01> -10194
00> -6836
01> -10242
00> -6844
01> -10261
00> -6824
01> -10227
00> -6801
01> -10182
00> -6801
01> -10178
00> -6831
01> -10235
00> -6845
01> -10259
00> -6826
01> -10223
00> -6793
01> -10172
00> -6798
01> -10173
00> -6829
01> -10236
00> -6834
01> -10258
00> -6822
01> -10227
00> -6802
01> -10191
00> -6797
01> -10183
00> -6824
01> -10231
00> -6832
01> -10252
00> -6811
01> -10222
00> -6797
01> -10191
00> -6800
01> -10197
00> -6834
01> -10261
00> -6848
01> -10286
00> -6835
01> -10257
00> -6807
01> -10205
00> -6798
01> -10187
00> -6825
01> -10231
00> -6837
01> -10260
00> -6821
01> -10232
00> -6804
01> -10191
00> -6806
01> -10184
00> -6826
01> -10232
00> -6836
01> -10259
00> -6824
01> -10234
00> -6804
01> -10190
00> -6799
01> -10181
00> -6823
01> -10228
00> -6831
01> -10250
00> -6816
01> -10219
00> -6796
01> -10174
00> -6797
01> -10177
00> -6834
01> -10238
00> -6842
01> -10264
00> -6814
01> -10221
00> -6794
01> -10181
00> -6793
01> -10174
00> -6822
01> -10224
00> -6824
01> -10249
00> -6809
01> -10221
00> -6792
01> -10179
00> -6790
01> -10172
00> -6817
01> -10227
00> -6832
01> -10254
00> -6817
01> -10232
00> -6795
01> -10192
00> -6795
01> -10179
00> -6819
01> -10227
00> -6827
01> -10250
00> -6811
01> -10210
00> -6793
01> -10162
00> -6790
01> -10161
00> -6821
01> -10219
00> -6836
01> -10260
00> -6823
01> -10237
00> -6801
01> -10194
00> -6794
01> -10187
00> -6818
01> -10226
00> -6834
01> -10252
00> -6815
01> -10221
00> -6786
01> -10167
00> -6778
01> -10155
00> -6805
01> -10206
00> -6821
01> -10239
00> -6807
01> -10224
00> -6784
01> -10174
00> -6784
01> -10157
00> -6807
01> -10200
00> -6820
01> -10229
00> -6809
01> -10209
00> -6793
01> -10173
00> -6791
01> -10167
00> -6820
01> -10217
00> -6831
01> -10244
00> -6813
01> -10219
00> -6791
01> -10173
00> -6781
01> -10156
00> -6811
01> -10211
00> -6827
01> -10250
00> -6812
01> -10229
00> -6786
01> -10182
00> -6784
01> -10176
00> -6812
01> -10231
00> -6837
01> -10270
00> -6824
01> -10245
00> -6797
01> -10198
00> -6796
01> -10192
00> -6827
01> -10239
00> -6833
01> -10266
00> -6819
01> -10240
00> -6791
01> -10186
00> -6789
01> -10177
00> -6816
01> -10232
00> -6830
01> -10262
00> -6817
01> -10230
00> -6792
01> -10182
00> -6789
01> -10166
00> -6815
01> -10217
00> -6829
01> -10248
00> -6810
01> -10227
00> -6788
01> -10189
00> -6780
01> -10175
00> -6810
01> -10219
00> -6824
01> -10256
00> -6806
01> -10228
00> -6781
01> -10179
00> -6774
01> -10172
00> -6804
01> -10231
00> -6821
01> -10262
00> -6802
01> -10233
00> -6777
01> -10191
00> -6772
01> -10182
00> -6796
01> -10227
00> -6811
01> -10256
00> -6800
01> -10231
00> -6781
01> -10190
00> -6776
01> -10173
00> -6803
01> -10228
00> -6815
01> -10249
00> -6797
01> -10207
00> -6770
01> -10157
00> -6769
01> -10156
00> -6804
01> -10219
00> -6819
01> -10249
00> -6809
01> -10227
00> -6788
01> -10194
00> -6784
01> -10182
00> -6807
01> -10231
00> -6822
01> -10273
00> -6806
01> -10247
00> -6777
01> -10198
00> -6768
01> -10180
00> -6796
01> -10240
00> -6815
01> -10269
00> -6801
01> -10232
00> -6779
01> -10186
00> -6775
01> -10179
00> -6802
01> -10234
00> -6817
01> -10267
00> -6801
01> -10238
00> -6774
01> -10200
00> -6774
01> -10193
00> -6805
01> -10239
00> -6816
01> -10258
00> -6802
01> -10227
00> -6782
01> -10179
00> -6780
01> -10164
00> -6811
01> -10228
00> -6817
01> -10256
00> -6799
01> -10229
00> -6769
01> -10180
00> -6762
01> -10166
00> -6793
01> -10216
00> -6811
01> -10252
00> -6799
01> -10231
00> -6772
01> -10187
00> -6770
01> -10172
00> -6804
01> -10232
00> -6829
01> -10268
00> -6815
01> -10236
00> -6790
01> -10190
00> -6784
01> -10170
00> -6813
01> -10221
00> -6824
01> -10261
00> -6807
01> -10236
00> -6786
01> -10194
00> -6782
01> -10179
00> -6810
01> -10223
00> -6827
01> -10256
00> -6807
01> -10225
00> -6776
01> -10169
00> -6764
01> -10143
00> -6794
01> -10201
00> -6816
01> -10244
00> -6787
01> -10199
00> -6761
01> -10149
00> -6759
01> -10139
00> -6788
01> -10202
00> -6802
01> -10244
00> -6769
01> -10195
00> -6719
01> -10134
00> -6699
01> -10101
00> -6726
01> -10146
00> -6719
01> -10158
00> -6717
01> -10114
00> -6674
01> -10024
00> -6601
01> -9937
00> -6594
01> -9929
00> -6592
01> -9908
00> -6536
01> -9812
00> -6463
01> -9696
00> -6407
01> -9597
00> -6404
01> -9580
00> -6389
01> -9558
00> -6335
01> -9471
00> -6277
01> -9382
00> -6243
01> -9326
00> -6256
01> -9354
00> -6256
01> -9381
00> -6233
01> -9337
00> -6199
01> -9292
00> -6189
01> -9292
00> -6232
01> -9364
00> -6266
01> -9419
00> -6259
01> -9413
00> -6247
01> -9386
00> -6259
01> -9398
00> -6315
01> -9496
00> -6364
01> -9576
00> -6369
01> -9580
00> -6360
01> -9554
00> -6368
01> -9557
00> -6415
01> -9641
00> -6453
01> -9717
00> -6453
01> -9719
00> -6435
01> -9681
00> -6437
01> -9680
00> -6479
01> -9756
00> -6509
01> -9809
00> -6502
01> -9791
00> -6486
01> -9751
00> -6489
01> -9750
00> -6531
01> -9826
00> -6568
01> -9890
00> -6562
01> -9880
00> -6539
01> -9846
00> -6539
01> -9840
00> -6575
01> -9901
00> -6602
01> -9952
00> -6594
01> -9937
00> -6575
01> -9897
00> -6569
01> -9879
00> -6607
01> -9937
00> -6631
01> -9997
00> -6621
01> -9977
00> -6600
01> -9931
00> -6599
01> -9929
00> -6634
01> -10006
00> -6660
01> -10068
00> -6650
01> -10041
00> -6624
01> -9984
00> -6617
01> -9967
00> -6649
01> -10030
00> -6672
01> -10078
00> -6657
01> -10061
00> -6626
01> -10001
00> -6612
01> -9969
00> -6646
01> -10028
00> -6662
01> -10077
00> -6647
01> -10055
00> -6631
01> -10009
00> -6625
01> -9987
00> -6654
01> -10039
00> -6683
01> -10094
00> -6670
01> -10076
00> -6646
01> -10037
00> -6644
01> -10017
00> -6678
01> -10068
00> -6705
01> -10122
00> -6689
01> -10099
00> -6656
01> -10039
00> -6646
01> -10019
00> -6679
01> -10082
00> -6701
01> -10129
00> -6687
01> -10104
00> -6658
01> -10060
00> -6649
01> -10037
00> -6674
01> -10088
00> -6695
01> -10142
00> -6682
01> -10116
00> -6657
01> -10064
00> -6651
01> -10039
00> -6682
01> -10091
00> -6696
01> -10137
00> -6680
01> -10109
00> -6654
01> -10052
00> -6648
01> -10031
00> -6682
01> -10087
00> -6704
01> -10134
00> -6689
01> -10109
00> -6656
01> -10052
00> -6642
01> -10019
00> -6669
01> -10066
00> -6693
01> -10117
00> -6675
01> -10093
00> -6648
01> -10049
00> -6644
01> -10032
00> -6676
01> -10091
00> -6698
01> -10145
00> -6684
01> -10117
00> -6661
01> -10062
00> -6659
01> -10042
00> -6687
01> -10099
00> -6717
01> -10148
00> -6700
01> -10126
00> -6667
01> -10066
00> -6654
01> -10039
00> -6684
01> -10097
00> -6715
01> -10152
00> -6702
01> -10127
00> -6676
01> -10071
00> -6666
01> -10050
00> -6697
01> -10111
00> -6717
01> -10158
00> -6699
01> -10128
00> -6666
01> -10063
00> -6656
01> -10033
00> -6691
01> -10102
00> -6716
01> -10163
00> -6704
01> -10140
00> -6671
01> -10073
00> -6649
01> -10038
00> -6679
01> -10096
00> -6710
01> -10151
00> -6698
01> -10131
00> -6666
01> -10073
00> -6654
01> -10040
00> -6691
01> -10116
00> -6722
01> -10186
00> -6707
01> -10156
00> -6674
01> -10093
00> -6659
01> -10066
00> -6686
01> -10119
00> -6709
01> -10172
00> -6697
01> -10150
00> -6672
01> -10097
00> -6651
01> -10068
00> -6677
01> -10127
00> -6706
01> -10177
00> -6692
01> -10146
00> -6652
01> -10077
00> -6638
01> -10042
00> -6671
01> -10104
00> -6696
01> -10162
00> -6687
01> -10136
00> -6656
01> -10075
00> -6639
01> -10047
00> -6676
01> -10109
00> -6708
01> -10175
00> -6696
01> -10152
00> -6661
01> -10085
00> -6642
01> -10042
00> -6671
01> -10096
00> -6703
01> -10164
00> -6694
01> -10144
00> -6656
01> -10081
00> -6636
01> -10043
00> -6674
01> -10106
00> -6701
01> -10166
00> -6688
01> -10139
00> -6661
01> -10081
00> -6647
01> -10055
00> -6686
01> -10125
00> -6719
01> -10198
00> -6701
01> -10164
00> -6667
01> -10099
00> -6652
01> -10062
00> -6685

00> -6721
01> -10194
00> -6710
01> -10170
00> -6668
01> -10102
00> -6648
01> -10062
00> -6691
01> -10135
00> -6724
01> -10206
00> -6706
01> -10172
00> -6662
01> -10087
00> -6638
01> -10032
00> -6678
01> -10106
00> -6707
01> -10187
00> -6686
01> -10151
00> -6652
01> -10071
00> -6632
01> -10032
00> -6677
01> -10108
00> -6712
01> -10183
00> -6700
01> -10157
00> -6659
01> -10083
00> -6637
01> -10031
00> -6682
01> -10106
00> -6724
01> -10201
00> -6702
01> -10176
00> -6659
01> -10091
00> -6645
01> -10054
00> -6684
01> -10130
00> -6715
01> -10199
00> -6698
01> -10166
00> -6667
01> -10100
00> -6656
01> -10069
00> -6690
01> -10136
00> -6724
01> -10209
00> -6707
01> -10180
00> -6672
01> -10110
00> -6658
01> -10066
00> -6692
01> -10128
00> -6727
01> -10205
00> -6709
01> -10175
00> -6673
01> -10106
00> -6651
01> -10055
00> -6688
01> -10126
00> -6725
01> -10204
00> -6711
01> -10182
00> -6677
01> -10111
00> -6658
01> -10067
00> -6692
01> -10130
00> -6726
01> -10200
00> -6704
01> -10165
00> -6659
01> -10087
00> -6638
01> -10041
00> -6686
01> -10124
00> -6729
01> -10213
00> -6705
01> -10172
00> -6664
01> -10088
00> -6642
01> -10032
00> -6684
01> -10114
00> -6727
01> -10217
00> -6716
01> -10187
00> -6671
01> -10097
00> -6642
01> -10037
00> -6680
01> -10113
00> -6721
01> -10201
00> -6697
01> -10161
00> -6654
01> -10083
00> -6630
01> -10023
00> -6681
01> -10103
00> -6724
01> -10203
00> -6709
01> -10179
00> -6664
01> -10088
00> -6641
01> -10034
00> -6684
01> -10106
00> -6730
01> -10204
00> -6716
01> -10180
00> -6669
01> -10092
00> -6637
01> -10030
00> -6682
01> -10104
00> -6727
01> -10202
00> -6707
01> -10170
00> -6667
01> -10085
00> -6637
01> -10021
00> -6678
01> -10101
00> -6717
01> -10204
00> -6696
01> -10166
00> -6653
01> -10074
00> -6633
01> -10022
00> -6682
01> -10094
00> -6722
01> -10189
00> -6701
01> -10158
00> -6652
01> -10073
00> -6624
01> -10014
00> -6671
01> -10093
00> -6714
01> -10197
00> -6702
01> -10167
00> -6659
01> -10084
00> -6625
01> -10015
00> -6665
01> -10084
00> -6713
01> -10184
00> -6697
01> -10159
00> -6646
01> -10071
00> -6619
01> -10014
00> -6669
01> -10100
00> -6716
01> -10203
00> -6703
01> -10179
00> -6661
01> -10096
00> -6631
01> -10032
00> -6668
01> -10102
00> -6712
01> -10203
00> -6696
01> -10170
00> -6655
01> -10087
00> -6631
01> -10030
00> -6678
01> -10111
00> -6722
01> -10208
00> -6708
01> -10177
00> -6656
01> -10081
00> -6619
01> -10011
00> -6664
01> -10082
00> -6716
01> -10183
00> -6701
01> -10161
00> -6662
01> -10074
00> -6635
01> -10013
00> -6677
01> -10090
00> -6724
01> -10191
00> -6708
01> -10164
00> -6656
01> -10078
00> -6611
01> -10006
00> -6655
01> -10080
00> -6712
01> -10190
00> -6697
01> -10167
00> -6657
01> -10087
00> -6626
01> -10029
00> -6670
01> -10103
00> -6721
01> -10205
00> -6702
01> -10178
00> -6660
01> -10091
00> -6633
01> -10029
00> -6676
01> -10111
00> -6722
01> -10212
00> -6707
01> -10181
00> -6657
01> -10089
00> -6627
01> -10019
00> -6667
01> -10084
00> -6717
01> -10189
00> -6701
01> -10159
00> -6654
01> -10066
00> -6616
01> -9992
00> -6656
01> -10067
00> -6706
01> -10176
00> -6697
01> -10149
00> -6650
01> -10059
00> -6617
01> -9991
00> -6658
01> -10066
00> -6706
01> -10169
00> -6693
01> -10148
00> -6644
01> -10062
00> -6609
01> -9993
00> -6652
01> -10067
00> -6707
01> -10182
00> -6694
01> -10164
00> -6657
01> -10086
00> -6629
01> -10028
00> -6672
01> -10101
00> -6724
01> -10207
00> -6707
01> -10182
00> -6659
01> -10089
00> -6617
01> -10015
00> -6659
01> -10088
00> -6715
01> -10200
00> -6700
01> -10175
00> -6653
01> -10083
00> -6628
01> -10017
00> -6673
01> -10086
00> -6721
01> -10192
00> -6704
01> -10171
00> -6661
01> -10081
00> -6626
01> -10014
00> -6667
01> -10087
00> -6724
01> -10202
00> -6718
01> -10177
00> -6671
01> -10076
00> -6626
01> -10000
00> -6665
01> -10069
00> -6722
01> -10181
00> -6711
01> -10158
00> -6666
01> -10066
00> -6630
01> -9998
00> -6671
01> -10072
00> -6720
01> -10184
00> -6707
01> -10165
00> -6662
01> -10074
00> -6629
01> -10001
00> -6669
01> -10071
00> -6715
01> -10177
00> -6701
01> -10152
00> -6654
01> -10060
00> -6622
01> -9996
00> -6666
01> -10071
00> -6722
01> -10187
00> -6713
01> -10178
00> -6665
01> -10082
00> -6630
01> -10009
00> -6666
01> -10077
00> -6712
01> -10191
00> -6702
01> -10167
00> -6664
01> -10069
00> -6631
01> -10001
00> -6667
01> -10064
00> -6730
01> -10189
00> -6715
01> -10173
00> -6665
01> -10076
00> -6624
01> -9994
00> -6662
01> -10060
00> -6715
01> -10172
00> -6699
01> -10149
00> -6655
01> -10066
00> -6614
01> -9994
00> -6656
01> -10052
00> -6714
01> -10167
00> -6699
01> -10141
00> -6654
01> -10039
00> -6617
01> -9962
00> -6659
01> -10036
00> -6720
01> -10156
00> -6710
01> -10134
00> -6663
01> -10043
00> -6622
01> -9972
00> -6663
01> -10037
00> -6719
01> -10152
00> -6707
01> -10144
00> -6657
01> -10050
00> -6619
01> -9972
00> -6668
01> -10052
00> -6726
01> -10181
00> -6714
01> -10162
00> -6668
01> -10075
00> -6629
01> -9996
00> -6668
01> -10058
00> -6724
01> -10174
00> -6715
01> -10162
00> -6667
01> -10074
00> -6621
01> -9991
00> -6653
01> -10052
00> -6706
01> -10170
00> -6697
01> -10151
00> -6646
01> -10048
00> -6607
01> -9963
00> -6649
01> -10037
00> -6709
01> -10166
00> -6696
01> -10156
00> -6643
01> -10052
00> -6597
01> -9966
00> -6634
01> -10022
00> -6696
01> -10142
00> -6696
01> -10135
00> -6656
01> -10055
00> -6613
01> -9977
00> -6654
01> -10045
00> -6716
01> -10171
00> -6704
01> -10156
00> -6661
01> -10069
00> -6622
01> -9990
00> -6667
01> -10056
00> -6729
01> -10186
00> -6714
01> -10174
00> -6665
01> -10077
00> -6625
01> -9999
00> -6658
01> -10054
00> -6712
01> -10169
00> -6702
01> -10156
00> -6656
01> -10063
00> -6614
01> -9977
00> -6648
01> -10030
00> -6705
01> -10149
00> -6697
01> -10143
00> -6659
01> -10057
00> -6624
01> -9985
00> -6654
01> -10046
00> -6714
01> -10165
00> -6703
01> -10149
00> -6650
01> -10063
00> -6606
01> -9981
00> -6649
01> -10044
00> -6719
01> -10179
00> -6711
01> -10162
00> -6664
01> -10069
00> -6622
01> -9982
00> -6656
01> -10034
00> -6720
01> -10159
00> -6711
01> -10162
00> -6664
01> -10072
00> -6626
01> -9991
00> -6662
01> -10049
00> -6719
01> -10164
00> -6703
01> -10147
00> -6652
01> -10049
00> -6609
01> -9969
00> -6647
01> -10027
00> -6703
01> -10147
00> -6696
01> -10130
00> -6652
01> -10041
00> -6616
01> -9967
00> -6644
01> -10024
00> -6704
01> -10153
00> -6699
01> -10148
00> -6662
01> -10066
00> -6622
01> -9987
00> -6661
01> -10050
00> -6726
01> -10180
00> -6716
01> -10169
00> -6667
01> -10079
00> -6621
01> -9987
00> -6651
01> -10044
00> -6709
01> -10170
00> -6709
01> -10164
00> -6665
01> -10079
00> -6619
01> -9992
00> -6649
01> -10035
00> -6714
01> -10162
00> -6710
01> -10158
00> -6662
01> -10064
00> -6620
01> -9986
00> -6655
01> -10042
00> -6716
01> -10162
00> -6709
01> -10147
00> -6661
01> -10049
00> -6617
01> -9959
00> -6650
01> -10017
00> -6711
01> -10154
00> -6710
01> -10164
00> -6667
01> -10083
00> -6627
01> -10001
00> -6657
01> -10046
00> -6717
01> -10169
00> -6709
01> -10166
00> -6666
01> -10082
00> -6624
01> -10006
00> -6663
01> -10073
00> -6727
01> -10204
00> -6717
01> -10189
00> -6669
01> -10096
00> -6627
01> -10004
00> -6659
01> -10050
00> -6726
01> -10179
00> -6724
01> -10174
00> -6679
01> -10081
00> -6626
01> -9986
00> -6656
01> -10037
00> -6716
01> -10165
00> -6706
01> -10162
00> -6662
01> -10067
00> -6619
01> -9988
00> -6649
01> -10039
00> -6705
01> -10156
00> -6700
01> -10151
00> -6660
01> -10064
00> -6624
01> -9991
00> -6657
01> -10048
00> -6724
01> -10179
00> -6718
01> -10172
00> -6665
01> -10077
00> -6614
01> -9987
00> -6643
01> -10042
00> -6709
01> -10182
00> -6711
01> -10188
00> -6669
01> -10094
00> -6626
01> -9998
00> -6656
01> -10038
00> -6716
01> -10162
00> -6706
01> -10149
00> -6663
01> -10062
00> -6625
01> -9987
00> -6656
01> -10042
00> -6721
01> -10172
00> -6710
01> -10162
00> -6660
01> -10059
00> -6618
01> -9972
00> -6647
01> -10021
00> -6713
01> -10154
00> -6714
01> -10155
00> -6666
01> -10058
00> -6620
01> -9976
00> -6646
01> -10019
00> -6711
01> -10150
00> -6716
01> -10157
00> -6666
01> -10071
00> -6624
01> -9985
00> -6649
01> -10031
00> -6705
01> -10153
00> -6697
01> -10151
00> -6654
01> -10064
00> -6612
01> -9976
00> -6647
01> -10024
00> -6712
01> -10157
00> -6714
01> -10159
00> -6671
01> -10076
00> -6619
01> -9984
00> -6642
01> -10022
00> -6699
01> -10142
00> -6700
01> -10144
00> -6654
01> -10062
00> -6619
01> -9987
00> -6654
01> -10037
00> -6708
01> -10160
00> -6698
01> -10154
00> -6654
01> -10063
00> -6610
01> -9980
00> -6639
01> -10031
00> -6705
01> -10162
00> -6701
01> -10160
00> -6657
01> -10078
00> -6617
01> -9997
00> -6648
01> -10042
00> -6705
01> -10166
00> -6704
01> -10166
00> -6661
01> -10081
00> -6621
01> -9996
00> -6645
01> -10029
00> -6701
01> -10149
00> -6696
01> -10148
00> -6647
01> -10058
00> -6601
01> -9971
00> -6629
01> -10012
00> -6691
01> -10143
00> -6690
01> -10141
00> -6644
01> -10053
00> -6606
01> -9971
00> -6637
01> -10014
00> -6703
01> -10141
00> -6696
01> -10143
00> -6652
01> -10059
00> -6602
01> -9966
00> -6623
01> -10006
00> -6690
01> -10137
00> -6684
01> -10144
00> -6634
01> -10056
00> -6591
01> -9967
00> -6622
01> -10001
00> -6682
01> -10130
00> -6675
01> -10135
00> -6638
01> -10045
00> -6596
01> -9961
00> -6621
01> -10002
00> -6688
01> -10139
00> -6688
01> -10149
00> -6640
01> -10057
00> -6589
01> -9966
00> -6614
01> -9993
00> -6687
01> -10124
00> -6692
01> -10139
00> -6644
01> -10050
00> -6596
01> -9957
00> -6625
01> -9995
00> -6685
01> -10125
00> -6684
01> -10135
00> -6640
01> -10049
00> -6593
01> -9959
00> -6617
01> -9996
00> -6681
01> -10122
00> -6688
01> -10134
00> -6644
01> -10044
00> -6593
01> -9955
00> -6619
01> -9989
00> -6684
01> -10113
00> -6682
01> -10119
00> -6636
01> -10024
00> -6591
01> -9934
00> -6613
01> -9964
00> -6675
01> -10102
00> -6680
01> -10112
00> -6634
01> -10024
00> -6586
01> -9934
00> -6609
01> -9972
00> -6680
01> -10106
00> -6684
01> -10118
00> -6635
01> -10031
00> -6598
01> -9953
00> -6623
01> -9991
00> -6686
01> -10127
00> -6689
01> -10141
00> -6647
01> -10056
00> -6600
01> -9963
00> -6624
01> -10001
00> -6686
01> -10131
00> -6684
01> -10139
00> -6647
01> -10059
00> -6602
01> -9976
00> -6624
01> -10014
00> -6691
01> -10150
00> -6703
01> -10166
00> -6657
01> -10072
00> -6603
01> -9971
00> -6617
01> -10001
00> -6691
01> -10138
00> -6696
01> -10147
00> -6651
01> -10053
00> -6597
01> -9951
00> -6616
01> -9978
00> -6681
01> -10111
00> -6693
01> -10131
00> -6657
01> -10059
00> -6601
01> -9962
00> -6615
01> -9979
00> -6685
01> -10116
00> -6695
01> -10137
00> -6652
01> -10051
00> -6604
01> -9958
00> -6626
01> -9996
00> -6692
01> -10121
00> -6696
01> -10136
00> -6649
01> -10047
00> -6595
01> -9954
00> -6619
01> -9991
00> -6687
01> -10127
00> -6699
01> -10146
00> -6658
01> -10067
00> -6608
01> -9976
00> -6629
01> -10006
00> -6691
01> -10130
00> -6689
01> -10142
00> -6647
01> -10058
00> -6597
01> -9962
00> -6625
01> -9991
00> -6685
01> -10118
00> -6689
01> -10129
00> -6648
01> -10045
00> -6596
01> -9949
00> -6612
01> -9974
00> -6686
01> -10112
00> -6702
01> -10136
00> -6664
01> -10064
00> -6611
01> -9966
00> -6627
01> -9987
00> -6694
01> -10122
00> -6704
01> -10145
00> -6653
01> -10054
00> -6597
01> -9964
00> -6621
01> -9989
00> -6689
01> -10121
00> -6696
01> -10144
00> -6651
01> -10058
00> -6604
01> -9961
00> -6614
01> -9976
00> -6686
01> -10112
00> -6694
01> -10132
00> -6646
01> -10050
00> -6597
01> -9960
00> -6614
01> -9981
00> -6680
01> -10112
00> -6689
01> -10136
00> -6646
01> -10041
00> -6591
01> -9941
00> -6619
01> -9972
00> -6696
01> -10116
00> -6708
01> -10141
00> -6666
01> -10057
00> -6609
01> -9959
00> -6627
01> -9985
00> -6693
01> -10114
00> -6697
01> -10137
00> -6648
01> -10051
00> -6602
01> -9962
00> -6620
01> -9989
00> -6684
01> -10121
00> -6695
01> -10144
00> -6652
01> -10056
00> -6604
01> -9963
00> -6617
01> -9973
00> -6677
01> -10100
00> -6680
01> -10122
00> -6644
01> -10041
00> -6601
01> -9954
00> -6615
01> -9971
00> -6676
01> -10102
00> -6681
01> -10122
00> -6637
01> -10036
00> -6591
01> -9952
00> -6609
01> -9971
00> -6661
01> -10082
00> -6667
01> -10103
00> -6628
01> -10031
00> -6589
01> -9947
00> -6614
01> -9972
00> -6678
01> -10101
00> -6690
01> -10131
00> -6649
01> -10049
00> -6600
01> -9962
00> -6615
01> -9975
00> -6674
01> -10098
00> -6686
01> -10116
00> -6646
01> -10040
00> -6601
01> -9952
00> -6613
01> -9970
00> -6680
01> -10106
00> -6687
01> -10127
00> -6638
01> -10039
00> -6591
01> -9943
00> -6607
01> -9955
00> -6673
01> -10089
00> -6682
01> -10109
00> -6637
01> -10027
00> -6596
01> -9944
00> -6614
01> -9963
00> -6677
01> -10092
00> -6681
01> -10121
00> -6641
01> -10039
00> -6597
01> -9946
00> -6610
01> -9962
00> -6674
01> -10094
00> -6681
01> -10124
00> -6644
01> -10047
00> -6599
01> -9954
00> -6607
01> -9971
00> -6670
01> -10100
00> -6684
01> -10137
00> -6643
01> -10050
00> -6594
01> -9953
00> -6607
01> -9966
00> -6674
01> -10099
00> -6685
01> -10125
00> -6646
01> -10040
00> -6597
01> -9950
00> -6612
01> -9968
00> -6678
01> -10095
00> -6683
01> -10124
00> -6641
01> -10044
00> -6586
01> -9947
00> -6597
01> -9958
00> -6663
01> -10077
00> -6668
01> -10098
00> -6626
01> -10016
00> -6581
01> -9921
00> -6591
01> -9934
00> -6662
01> -10076
00> -6674
01> -10109
00> -6641
01> -10041
00> -6596
01> -9951
00> -6611
01> -9967
00> -6679
01> -10101
00> -6686
01> -10123
00> -6644
01> -10042
00> -6594
01> -9951
00> -6600
01> -9959
00> -6664
01> -10091
00> -6681
01> -10124
00> -6641
01> -10040
00> -6587
01> -9945
00> -6600
01> -9957
00> -6663
01> -10091
00> -6671
01> -10119
00> -6635
01> -10045
00> -6584
01> -9941
00> -6594
01> -9947
00> -6664
01> -10087
00> -6681
01> -10120
00> -6639
01> -10034
00> -6586
01> -9936
00> -6597
01> -9946
00> -6662
01> -10080
00> -6672
01> -10114
00> -6635
01> -10038
00> -6590
01> -9948
00> -6604
01> -9957
00> -6670
01> -10087
00> -6685
01> -10124
00> -6641
01> -10047
00> -6587
01> -9954
00> -6599
01> -9962
00> -6671
01> -10093
00> -6683
01> -10127
00> -6643
01> -10043
00> -6592
01> -9942
00> -6598
01> -9947
00> -6665
01> -10075
00> -6678
01> -10110
00> -6637
01> -10029
00> -6580
01> -9929
00> -6586
01> -9938
00> -6662
01> -10074
00> -6684
01> -10117
00> -6645
01> -10043
00> -6592
01> -9948
00> -6597
01> -9941
00> -6662
01> -10075
00> -6680
01> -10119
00> -6642
01> -10051
00> -6594
01> -9954
00> -6602
01> -9956
00> -6669
01> -10100
00> -6679
01> -10135
00> -6641
01> -10055
00> -6591
01> -9959
00> -6604
01> -9971
00> -6677
01> -10104
00> -6687
01> -10136
00> -6636
01> -10047
00> -6583
01> -9936
00> -6589
01> -9938
00> -6661
01> -10077
00> -6677
01> -10124
00> -6635
01> -10047
00> -6586
01> -9945
00> -6596
01> -9947
00> -6662
01> -10084
00> -6676
01> -10129
00> -6637
01> -10048
00> -6589
01> -9951
00> -6590
01> -9951
00> -6663
01> -10088
00> -6674
01> -10126
00> -6626
01> -10047
00> -6576
01> -9951
00> -6582
01> -9951
00> -6657
01> -10092
00> -6677
01> -10139
00> -6637
01> -10058
00> -6589
01> -9960
00> -6593
01> -9958
00> -6662
01> -10091
00> -6674
01> -10127
00> -6628
01> -10042
00> -6567
01> -9937
00> -6576
01> -9937
00> -6653
01> -10082
00> -6675
01> -10134
00> -6634
01> -10054
00> -6579
01> -9945
00> -6586
01> -9937
00> -6651
01> -10071
00> -6664
01> -10119
00> -6623
01> -10039
00> -6572
01> -9951
00> -6581
01> -9957
00> -6658
01> -10097
00> -6670
01> -10137
00> -6624
01> -10054
00> -6576
01> -9956
00> -6582
01> -9954
00> -6648
01> -10089
00> -6666
01> -10141
00> -6625
01> -10057
00> -6569
01> -9950
00> -6572
01> -9946
00> -6638
01> -10083
00> -6659
01> -10127
00> -6623
01> -10047
00> -6573
01> -9947
00> -6572
01> -9937
00> -6634
01> -10070
00> -6645
01> -10111
00> -6607
01> -10042
00> -6571
01> -9951
00> -6572
01> -9937
00> -6641
01> -10069
00> -6663
01> -10119
00> -6628
01> -10048
00> -6574
01> -9949
00> -6569
01> -9934
00> -6641
01> -10079
00> -6666
01> -10142
00> -6628
01> -10062
00> -6577
01> -9953
00> -6571
01> -9941
00> -6641
01> -10078
00> -6663
01> -10133
00> -6627
01> -10058
00> -6573
01> -9953
00> -6577
01> -9945
00> -6644
01> -10088
00> -6666
01> -10149
00> -6631
01> -10077
00> -6578
01> -9972
00> -6576
01> -9951
00> -6644
01> -10075
00> -6661
01> -10119
00> -6626
01> -10047
00> -6571
01> -9946
00> -6572
01> -9938
00> -6643
01> -10071
00> -6662
01> -10114
00> -6625
01> -10036
00> -6569
01> -9931
00> -6562
01> -9912
00> -6632
01> -10044
00> -6661
01> -10105
00> -6629
01> -10041
00> -6577
01> -9937
00> -6576
01> -9928
00> -6647
01> -10063
00> -6672
01> -10118
00> -6633
01> -10047
00> -6582
01> -9944
00> -6580
01> -9927
00> -6650
01> -10057
00> -6671
01> -10111
00> -6636
01> -10036
00> -6585
01> -9939
00> -6584
01> -9931
00> -6656
01> -10072
00> -6680
01> -10126
00> -6646
01> -10044
00> -6592
01> -9946
00> -6589
01> -9938
00> -6655
01> -10062
00> -6686
01> -10115
00> -6649
01> -10054
00> -6594
01> -9957
00> -6599
01> -9945
00> -6668
01> -10072
00> -6686
01> -10127
00> -6644
01> -10046
00> -6588
01> -9946
00> -6586
01> -9933
00> -6662
01> -10069
00> -6685
01> -10123
00> -6643
01> -10045
00> -6587
01> -9943
00> -6582
01> -9932
00> -6650
01> -10072
00> -6676
01> -10134
00> -6646
01> -10057
00> -6591
01> -9945
00> -6586
01> -9921
00> -6659
01> -10062
00> -6684
01> -10126
00> -6641
01> -10049
00> -6582
01> -9941
00> -6582
01> -9931
00> -6651
01> -10067
00> -6677
01> -10122
00> -6643
01> -10048
00> -6594
01> -9953
00> -6599
01> -9943
00> -6666
01> -10072
00> -6691
01> -10134
00> -6652
01> -10062
00> -6595
01> -9957
00> -6590
01> -9935
00> -6659
01> -10065
00> -6689
01> -10122
00> -6652
01> -10056
00> -6599
01> -9952
00> -6594
01> -9934
00> -6665
01> -10072
00> -6696
01> -10135
00> -6656
01> -10053
00> -6602
01> -9948
00> -6599
01> -9931
00> -6667
01> -10062
00> -6686
01> -10119
00> -6651
01> -10054
00> -6594
01> -9951
00> -6587
01> -9929
00> -6661
01> -10062
00> -6684
01> -10128
00> -6637
01> -10054
00> -6579
01> -9942
00> -6574
01> -9926
00> -6642
01> -10056
00> -6674
01> -10119
00> -6641
01> -10054
00> -6585
01> -9952
00> -6586
01> -9938
00> -6660
01> -10071
00> -6684
01> -10129
00> -6642
01> -10058
00> -6587
01> -9954
00> -6586
01> -9934
00> -6651
01> -10059
00> -6672
01> -10112
00> -6641
01> -10044
00> -6589
01> -9948
00> -6577
01> -9917
00> -6641
01> -10038
00> -6666
01> -10104
00> -6631
01> -10041
00> -6579
01> -9947
00> -6569
01> -9920
00> -6641
01> -10046
00> -6673
01> -10114
00> -6645
01> -10053
00> -6594
01> -9958
00> -6584
01> -9936
00> -6652
01> -10071
00> -6681
01> -10142
00> -6647
01> -10072
00> -6590
01> -9963
00> -6580
01> -9934
00> -6647
01> -10055
00> -6676
01> -10124
00> -6637
01> -10054
00> -6584
01> -9947
00> -6571
01> -9921
00> -6639
01> -10044
00> -6668
01> -10109
00> -6638
01> -10040
00> -6584
01> -9937
00> -6574
01> -9911
00> -6640
01> -10039
00> -6674
01> -10119
00> -6635
01> -10049
00> -6583
01> -9944
00> -6572
01> -9922
00> -6637
01> -10047
00> -6664
01> -10109
00> -6634
01> -10041
00> -6582
01> -9941
00> -6576
01> -9921
00> -6651
01> -10052
00> -6683
01> -10126
00> -6647
01> -10057
00> -6592
01> -9949
00> -6582
01> -9925
00> -6650
01> -10045
00> -6681
01> -10111
00> -6647
01> -10044
00> -6591
01> -9947
00> -6583
01> -9919
00> -6647
01> -10044
00> -6677
01> -10118
00> -6642
01> -10042
00> -6578
01> -9920
00> -6561
01> -9891
00> -6628
01> -10021
00> -6659
01> -10097
00> -6622
01> -10034
00> -6579
01> -9937
00> -6573
01> -9915
00> -6634
01> -10039
00> -6666
01> -10106
00> -6633
01> -10037
00> -6582
01> -9944
00> -6567
01> -9920
00> -6638
01> -10059
00> -6664
01> -10124
00> -6631
01> -10054
00> -6573
01> -9949
00> -6561
01> -9917
00> -6634
01> -10049
00> -6661
01> -10114
00> -6623
01> -10039
00> -6566
01> -9934
00> -6546
01> -9899
00> -6613
01> -10027
00> -6651
01> -10104
00> -6617
01> -10046
00> -6561
01> -9942
00> -6551
01> -9899
00> -6617
01> -10021
00> -6646
01> -10097
00> -6607
01> -10021
00> -6554
01> -9920
00> -6544
01> -9894
00> -6611
01> -10022
00> -6639
01> -10096
00> -6603
01> -10036
00> -6550
01> -9935
00> -6540
01> -9904
00> -6606
01> -10031
00> -6636
01> -10099
00> -6605
01> -10037
00> -6553
01> -9942
00> -6541
01> -9902
00> -6603
01> -10021
00> -6632
01> -10091
00> -6600
01> -10027
00> -6539
01> -9920
00> -6524
01> -9881
00> -6592
01> -9998
00> -6632
01> -10079
00> -6603
01> -10027
00> -6549
01> -9931
00> -6539
01> -9901
00> -6604
01> -10027
00> -6634
01> -10096
00> -6597
01> -10035
00> -6540
01> -9932
00> -6532
01> -9896
00> -6596
01> -10013
00> -6628
01> -10093
00> -6592
01> -10036
00> -6542
01> -9939
00> -6526
01> -9897
00> -6589
01> -10009
00> -6625
01> -10089
00> -6594
01> -10033
00> -6539
01> -9923
00> -6527
01> -9886
00> -6594
01> -10010
00> -6629
01> -10097
00> -6599
01> -10041
00> -6544
01> -9936
00> -6525
01> -9889
00> -6587
01> -10011
00> -6626
01> -10090
00> -6596
01> -10026
00> -6546
01> -9924
00> -6532
01> -9891
00> -6592
01> -10016
00> -6622
01> -10102
00> -6599
01> -10051
00> -6547
01> -9949
00> -6535
01> -9907
00> -6597
01> -10012
00> -6632
01> -10083
00> -6604
01> -10027
00> -6558
01> -9933
00> -6546
01> -9898
00> -6611
01> -10019
00> -6647
01> -10094
00> -6614
01> -10037
00> -6560
01> -9937
00> -6539
01> -9896
00> -6607
01> -10017
00> -6641
01> -10100
00> -6606
01> -10037
00> -6550
01> -9934
00> -6526
01> -9896
00> -6592
01> -10014
00> -6631
01> -10098
00> -6605
01> -10042
00> -6553
01> -9946
00> -6535
01> -9902
00> -6597
01> -10019
00> -6635
01> -10103
00> -6606
01> -10038
00> -6555
01> -9940
00> -6540
01> -9901
00> -6607
01> -10024
00> -6649
01> -10112
00> -6621
01> -10055
00> -6569
01> -9956
00> -6548
01> -9904
00> -6612
01> -10019
00> -6646
01> -10102
00> -6609
01> -10039
00> -6551
01> -9937
00> -6533
01> -9898
00> -6606
01> -10023
00> -6648
01> -10114
00> -6614
01> -10049
00> -6559
01> -9945
00> -6542
01> -9907
00> -6594
01> -10016
00> -6628
01> -10099
00> -6602
01> -10047
00> -6552
01> -9946
00> -6542
01> -9913
00> -6606
01> -10032
00> -6641
01> -10117
00> -6607
01> -10046
00> -6549
01> -9932
00> -6530
01> -9887
00> -6600
01> -10002
00> -6645
01> -10099
00> -6622
01> -10057
00> -6570
01> -9956
00> -6547
01> -9896
00> -6609
01> -10004
00> -6651
01> -10094
00> -6621
01> -10036
00> -6569
01> -9934
00> -6549
01> -9884
00> -6605
01> -9996
00> -6637
01> -10078
00> -6604
01> -10022
00> -6552
01> -9922
00> -6536
01> -9881
00> -6598
01> -10001
00> -6637
01> -10094
00> -6614
01> -10045
00> -6562
01> -9946
00> -6538
01> -9891
00> -6598
01> -10007
00> -6643
01> -10098
00> -6612
01> -10044
00> -6565
01> -9950
00> -6554
01> -9913
00> -6613
01> -10027
00> -6651
01> -10111
00> -6627
01> -10060
00> -6569
01> -9952
00> -6537
01> -9896
00> -6600
01> -10006
00> -6643
01> -10103
00> -6613
01> -10046
00> -6560
01> -9942
00> -6536
01> -9891
00> -6596
01> -9993
00> -6635
01> -10074
00> -6604
01> -10022
00> -6555
01> -9934
00> -6536
01> -9891
00> -6599
01> -10007
00> -6636
01> -10099
00> -6606
01> -10049
00> -6558
01> -9954
00> -6539
01> -9903
00> -6600
01> -10014
00> -6639
01> -10107
00> -6611
01> -10046
00> -6559
01> -9941
00> -6537
01> -9889
00> -6604
01> -10001
00> -6652
01> -10099
00> -6626
01> -10049
00> -6569
01> -9947
00> -6541
01> -9886
00> -6594
01> -9987
00> -6634
01> -10084
00> -6606
01> -10034
00> -6557
01> -9938
00> -6536
01> -9884
00> -6589
01> -9993
00> -6628
01> -10090
00> -6606
01> -10042
00> -6559
01> -9941
00> -6528
01> -9879
00> -6584
01> -9986
00> -6629
01> -10081
00> -6599
01> -10026
00> -6549
01> -9926
00> -6534
01> -9887
00> -6589
01> -9991
00> -6625
01> -10087
00> -6597
01> -10041
00> -6553
01> -9949
00> -6528
01> -9887
00> -6588
01> -9992
00> -6630
01> -10084
00> -6600
01> -10036
00> -6552
01> -9943
00> -6527
01> -9890
00> -6581
01> -9990
00> -6622
01> -10082
00> -6599
01> -10032
00> -6545
01> -9932
00> -6519
01> -9874
00> -6570
01> -9975
00> -6614
01> -10067
00> -6591
01> -10021
00> -6539
01> -9929
00> -6516
01> -9874
00> -6571
01> -9977
00> -6619
01> -10076
00> -6600
01> -10032
00> -6544
01> -9929
00> -6512
01> -9874
00> -6570
01> -9978
00> -6611
01> -10072
00> -6588
01> -10026
00> -6539
01> -9928
00> -6515
01> -9879
00> -6567
01> -9976
00> -6610
01> -10076
00> -6584
01> -10027
00> -6530
01> -9923
00> -6508
01> -9872
00> -6564
01> -9967
00> -6604
01> -10064
00> -6574
01> -10011
00> -6514
01> -9913
00> -6496
01> -9864
00> -6559
01> -9966
00> -6602
01> -10069
00> -6580
01> -10021
00> -6527
01> -9919
00> -6501
01> -9866
00> -6556
01> -9974
00> -6603
01> -10071
00> -6579
01> -10024
00> -6527
01> -9931
00> -6503
01> -9876
00> -6566
01> -9973
00> -6610
01> -10069
00> -6579
01> -10012
00> -6529
01> -9913
00> -6501
01> -9850
00> -6561
01> -9957
00> -6607
01> -10060
00> -6582
01> -10019
00> -6535
01> -9928
00> -6509
01> -9864
00> -6559
01> -9955
00> -6607
01> -10057
00> -6581
01> -10008
00> -6523
01> -9904
00> -6498
01> -9840
00> -6557
01> -9942
00> -6606
01> -10046
00> -6582
01> -10008
00> -6529
01> -9920
00> -6502
01> -9857
00> -6557
01> -9954
00> -6606
01> -10059
00> -6589
01> -10015
00> -6539
01> -9922
00> -6516
01> -9867
00> -6567
01> -9957
00> -6614
01> -10061
00> -6595
01> -10028
00> -6551
01> -9941
00> -6525
01> -9877
00> -6581
01> -9972
00> -6629
01> -10079
00> -6597
01> -10031
00> -6546
01> -9925
00> -6518
01> -9865
00> -6567
01> -9962
00> -6620
01> -10069
00> -6597
01> -10026
00> -6545
01> -9920
00> -6516
01> -9858
00> -6570
01> -9959
00> -6625
01> -10066
00> -6603
01> -10024
00> -6550
01> -9926
00> -6525
01> -9869
00> -6580
01> -9974
00> -6627
01> -10074
00> -6607
01> -10036
00> -6551
01> -9934
00> -6516
01> -9864
00> -6562
01> -9957
00> -6614
01> -10062
00> -6600
01> -10033
00> -6557
01> -9937
00> -6527
01> -9880
00> -6577
01> -9970
00> -6633
01> -10077
00> -6610
01> -10044
00> -6554
01> -9942
00> -6528
01> -9881
00> -6576
01> -9965
00> -6612
01> -10067
00> -6562
01> -10018
00> -6489
01> -9902
00> -6471
01> -9834
00> -6533
01> -9918
00> -6561
01> -10006
00> -6511
01> -9932
00> -6407
01> -9767
00> -6326
01> -9644
00> -6379
01> -9696
00> -6404
01> -9750
00> -6324
01> -9635
00> -6201
01> -9444
00> -6118
01> -9286
00> -6148
01> -9319
00> -6159
01> -9364
00> -6089
01> -9257
00> -5994
01> -9098
00> -5914
01> -8965
00> -5945
01> -9024
00> -5984
01> -9121
00> -5941
01> -9041
00> -5872
01> -8915
00> -5817
01> -8828
00> -5857
01> -8898
00> -5901
01> -9001
00> -5871
01> -8959
00> -5806
01> -8851
00> -5771
01> -8786
00> -5826
01> -8879
00> -5887
01> -9001
00> -5878
01> -8971
00> -5841
01> -8893
00> -5828
01> -8861
00> -5896
01> -8976
00> -5964
01> -9111
00> -5962
01> -9108
00> -5927
01> -9041
00> -5911
01> -8995
00> -5989
01> -9106
00> -6066
01> -9250
00> -6064
01> -9239
00> -6032
01> -9167
00> -6027
01> -9131
00> -6100
01> -9253
00> -6169
01> -9394
00> -6158
01> -9381
00> -6117
01> -9299
00> -6102
01> -9253
00> -6162
01> -9360
00> -6229
01> -9494
00> -6225
01> -9476
00> -6183
01> -9389
00> -6161
01> -9337
00> -6220
01> -9438
00> -6281
01> -9564
00> -6266
01> -9541
00> -6227
01> -9462
00> -6202
01> -9401
00> -6262
01> -9494
00> -6319
01> -9619
00> -6309
01> -9599
00> -6269
01> -9518
00> -6239
01> -9458
00> -6294
01> -9555
00> -6358
01> -9677
00> -6347
01> -9661
00> -6302
01> -9577
00> -6273
01> -9510
00> -6321
01> -9597
00> -6378
01> -9721
00> -6360
01> -9696
00> -6317
01> -9608
00> -6293
01> -9541
00> -6341
01> -9629
00> -6393
01> -9750
00> -6382
01> -9724
00> -6341
01> -9641
00> -6314
01> -9580
00> -6365
01> -9656
00> -6416
01> -9771
00> -6394
01> -9744
00> -6347
01> -9652
00> -6315
01> -9579
00> -6360
01> -9662
00> -6415
01> -9786
00> -6406
01> -9763
00> -6367
01> -9677
00> -6337
01> -9612
00> -6384
01> -9696
00> -6437
01> -9810
00> -6417
01> -9778
00> -6367
01> -9686
00> -6326
01> -9612
00> -6367
01> -9692
00> -6423
01> -9808
00> -6411
01> -9782
00> -6369
01> -9691
00> -6339
01> -9630
00> -6389
01> -9707
00> -6443
01> -9819
00> -6424
01> -9789
00> -6379
01> -9696
00> -6353
01> -9627
00> -6405
01> -9716
00> -6458
01> -9832
00> -6439
01> -9811
00> -6392
01> -9717
00> -6362
01> -9651
00> -6403
01> -9727
00> -6457
01> -9839
00> -6446
01> -9807
00> -6393
01> -9709
00> -6354
01> -9637
00> -6403
01> -9727
00> -6461
01> -9846
00> -6442
01> -9817
00> -6389
01> -9719
00> -6352
01> -9645
00> -6402
01> -9728
00> -6464
01> -9854
00> -6449
01> -9825
00> -6400
01> -9724
00> -6363
01> -9647
00> -6404
01> -9724
00> -6458
01> -9848
00> -6439
01> -9824
00> -6396
01> -9731
00> -6360
01> -9657
00> -6407
01> -9736
00> -6465
01> -9859
00> -6452
01> -9834
00> -6397
01> -9727
00> -6367
01> -9654
00> -6408
01> -9731
00> -6464
01> -9857
00> -6452
01> -9841
00> -6405
01> -9742
00> -6370
01> -9665
00> -6412
01> -9739
00> -6476
01> -9866
00> -6464
01> -9845
00> -6410
01> -9742
00> -6365
01> -9662
00> -6407
01> -9734
00> -6465
01> -9862
00> -6453
01> -9842
00> -6402
01> -9739
00> -6360
01> -9661
00> -6399
01> -9729
00> -6456
01> -9849
00> -6444
01> -9822
00> -6396
01> -9732
00> -6355
01> -9665
00> -6392
01> -9736
00> -6446
01> -9857
00> -6432
01> -9833
00> -6384
01> -9738
00> -6348
01> -9661
00> -6392
01> -9734
00> -6451
01> -9861
00> -6439
01> -9843
00> -6397
01> -9758
00> -6358
01> -9674
00> -6392
01> -9728
00> -6451
01> -9853
00> -6438
01> -9841
00> -6391
01> -9748
00> -6355
01> -9669
00> -6395
01> -9746
00> -6459
01> -9872
00> -6444
01> -9846
00> -6389
01> -9741
00> -6343
01> -9647
00> -6382
01> -9717
00> -6444
01> -9849
00> -6433
01> -9836
00> -6386
01> -9736
00> -6345
01> -9651
00> -6389
01> -9721
00> -6451
01> -9846
00> -6437
01> -9824
00> -6391
01> -9732
00> -6352
01> -9662
00> -6397
01> -9737
00> -6469
01> -9876
00> -6456
01> -9855
00> -6401
01> -9749
00> -6352
01> -9662
00> -6389
01> -9729
00> -6456
01> -9855
00> -6449
01> -9839
00> -6401
01> -9744
00> -6353
01> -9651
00> -6390
01> -9710
00> -6450
01> -9839
00> -6437
01> -9819
00> -6391
01> -9727
00> -6352
01> -9652
00> -6396
01> -9724
00> -6461
01> -9854
00> -6445
01> -9837
00> -6398
01> -9733
00> -6351
01> -9645
00> -6392
01> -9713
00> -6457
01> -9842
00> -6452
01> -9828
00> -6401
01> -9727
00> -6357
01> -9646
00> -6397
01> -9721
00> -6461
01> -9852
00> -6445
01> -9835
00> -6396
01> -9750
00> -6353
01> -9669
00> -6391
01> -9729
00> -6459
01> -9859
00> -6452
01> -9852
00> -6403
01> -9759
00> -6364
01> -9676
00> -6403
01> -9737
00> -6464
01> -9870
00> -6452
01> -9857
00> -6400
01> -9756
00> -6358
01> -9667
00> -6391
01> -9724
00> -6453
01> -9851
00> -6446
01> -9842
00> -6398
01> -9754
00> -6353
01> -9667
00> -6391
01> -9732
00> -6458
01> -9862
00> -6445
01> -9847
00> -6394
01> -9749
00> -6346
01> -9655
00> -6378
01> -9716
00> -6441
01> -9847
00> -6432
01> -9836
00> -6383
01> -9741
00> -6349
01> -9666
00> -6389
01> -9727
00> -6453
01> -9855
00> -6447
01> -9844
00> -6391
01> -9749
00> -6344
01> -9662
00> -6380
01> -9722
00> -6450
01> -9861
00> -6446
01> -9855
00> -6399
01> -9766
00> -6352
01> -9681
00> -6385
01> -9734
00> -6447
01> -9865
00> -6436
01> -9852
00> -6386
01> -9751
00> -6348
01> -9666
00> -6382
01> -9725
00> -6447
01> -9856
00> -6434
01> -9842
00> -6384
01> -9744
00> -6344
01> -9670
00> -6378
01> -9731
00> -6437
01> -9857
00> -6426
01> -9839
00> -6380
01> -9748
00> -6340
01> -9666
00> -6375
01> -9719
00> -6436
01> -9846
00> -6421
01> -9826
00> -6366
01> -9726
00> -6328
01> -9641
00> -6366
01> -9698
00> -6434
01> -9839
00> -6436
01> -9846
00> -6392
01> -9763
00> -6347
01> -9682
00> -6379
01> -9730
00> -6445
01> -9866
00> -6442
01> -9864
00> -6402
01> -9772
00> -6358
01> -9682
00> -6387
01> -9727
00> -6449
01> -9857
00> -6438
01> -9855
00> -6394
01> -9764
00> -6346
01> -9674
00> -6378
01> -9724
00> -6447
01> -9858
00> -6444
01> -9854
00> -6391
01> -9755
00> -6348
01> -9672
00> -6381
01> -9711
00> -6446
01> -9836
00> -6436
01> -9835
00> -6390
01> -9746
00> -6356
01> -9672
00> -6382
01> -9722
00> -6449
01> -9849
00> -6442
01> -9843
00> -6393
01> -9745
00> -6349
01> -9659
00> -6379
01> -9702
00> -6444
01> -9837
00> -6432
01> -9830
00> -6379
01> -9732
00> -6327
01> -9639
00> -6364
01> -9697
00> -6437
01> -9841
00> -6431
01> -9841
00> -6385
01> -9752
00> -6338
01> -9660
00> -6363
01> -9703
00> -6430
01> -9835
00> -6439
01> -9842
00> -6397
01> -9756
00> -6352
01> -9672
00> -6377
01> -9714
00> -6440
01> -9842
00> -6440
01> -9849
00> -6394
01> -9762
00> -6345
01> -9662
00> -6379
01> -9707
00> -6444
01> -9837
00> -6438
01> -9839
00> -6394
01> -9751
00> -6345
01> -9659
00> -6376
01> -9708
00> -6445
01> -9847
00> -6441
01> -9848
00> -6391
01> -9752
00> -6349
01> -9667
00> -6372
01> -9707
00> -6436
01> -9835
00> -6437
01> -9832
00> -6387
01> -9746
00> -6347
01> -9665
00> -6374
01> -9711
00> -6435
01> -9846
00> -6433
01> -9848
00> -6379
01> -9743
00> -6332
01> -9649
00> -6361
01> -9697
00> -6426
01> -9828
00> -6426
01> -9831
00> -6382
01> -9742
00> -6337
01> -9654
00> -6367
01> -9698
00> -6433
01> -9821
00> -6432
01> -9827
00> -6388
01> -9745
00> -6342
01> -9657
00> -6366
01> -9704
00> -6429
01> -9843
00> -6428
01> -9849
00> -6381
01> -9754
00> -6328
01> -9654
00> -6354
01> -9694
00> -6426
01> -9830
00> -6425
01> -9837
00> -6378
01> -9744
00> -6325
01> -9647
00> -6349
01> -9688
00> -6416
01> -9831
00> -6422
01> -9845
00> -6381
01> -9756
00> -6335
01> -9667
00> -6357
01> -9701
00> -6421
01> -9830
00> -6417
01> -9825
00> -6364
01> -9728
00> -6312
01> -9637
00> -6332
01> -9669
00> -6399
01> -9810
00> -6407
01> -9831
00> -6362
01> -9744
00> -6317
01> -9656
00> -6346
01> -9695
00> -6415
01> -9826
00> -6413
01> -9832
00> -6367
01> -9744
00> -6318
01> -9652
00> -6339
01> -9682
00> -6402
01> -9804
00> -6406
01> -9815
00> -6362
01> -9731
00> -6314
01> -9640
00> -6336
01> -9675
00> -6412
01> -9816
00> -6417
01> -9839
00> -6374
01> -9750
00> -6323
01> -9646
00> -6340
01> -9677
00> -6406
01> -9811
00> -6412
01> -9824
00> -6372
01> -9732
00> -6322
01> -9638
00> -6336
01> -9668
00> -6406
01> -9802
00> -6407
01> -9819
00> -6359
01> -9737
00> -6313
01> -9639
00> -6338
01> -9664
00> -6407
01> -9797
00> -6409
01> -9813
00> -6370
01> -9733
00> -6327
01> -9642
00> -6341
01> -9664
00> -6401
01> -9791
00> -6405
01> -9806
00> -6357
01> -9723
00> -6311
01> -9636
00> -6336
01> -9667
00> -6411
01> -9804
00> -6409
01> -9816
00> -6365
01> -9732
00> -6316
01> -9644
00> -6330
01> -9669
00> -6397
01> -9796
00> -6399
01> -9804
00> -6351
01> -9716
00> -6304
01> -9622
00> -6325
01> -9651
00> -6396
01> -9789
00> -6404
01> -9811
00> -6361
01> -9726
00> -6309
01> -9627
00> -6327
01> -9652
00> -6400
01> -9792
00> -6406
01> -9814
00> -6364
01> -9729
00> -6313
01> -9637
00> -6337
01> -9669
00> -6404
01> -9800
00> -6407
01> -9824
00> -6363
01> -9744
00> -6311
01> -9640
00> -6324
01> -9660
00> -6391
01> -9794
00> -6402
01> -9817
00> -6361
01> -9732
00> -6308
01> -9634
00> -6331
01> -9667
00> -6401
01> -9801
00> -6405
01> -9814
00> -6357
01> -9726
00> -6300
01> -9622
00> -6311
01> -9634
00> -6381
01> -9772
00> -6386
01> -9805
00> -6344
01> -9714
00> -6297
01> -9621
00> -6314
01> -9641
00> -6385
01> -9777
00> -6392
01> -9807
00> -6349
01> -9717
00> -6297
01> -9619
00> -6317
01> -9641
00> -6387
01> -9781
00> -6399
01> -9811
00> -6359
01> -9722
00> -6307
01> -9624
00> -6321
01> -9642
00> -6390
01> -9783
00> -6397
01> -9804
00> -6352
01> -9723
00> -6304
01> -9632
00> -6322
01> -9659
00> -6394
01> -9802
00> -6406
01> -9829
00> -6367
01> -9747
00> -6319
01> -9650
00> -6336
01> -9666
00> -6404
01> -9807
00> -6414
01> -9828
00> -6372
01> -9737
00> -6321
01> -9637
00> -6330
01> -9654
00> -6397
01> -9790
00> -6412
01> -9822
00> -6373
01> -9730
00> -6319
01> -9634
00> -6332
01> -9654
00> -6398
01> -9788
00> -6406
01> -9815
00> -6359
01> -9723
00> -6304
01> -9627
00> -6325
01> -9649
00> -6403
01> -9791
00> -6414
01> -9821
00> -6369
01> -9739
00> -6315
01> -9642
00> -6331
01> -9662
00> -6397
01> -9792
00> -6406
01> -9816
00> -6367
01> -9732
00> -6323
01> -9632
00> -6334
01> -9642
00> -6404
01> -9786
00> -6423
01> -9822
00> -6381
01> -9739
00> -6324
01> -9637
00> -6333
01> -9642
00> -6401
01> -9784
00> -6409
01> -9811
00> -6371
01> -9725
00> -6322
01> -9633
00> -6336
01> -9651
00> -6404
01> -9784
00> -6419
01> -9824
00> -6375
01> -9747
00> -6329
01> -9655
00> -6339
01> -9669
00> -6403
01> -9801
00> -6417
01> -9832
00> -6377
01> -9753
00> -6326
01> -9655
00> -6333
01> -9662
00> -6414
01> -9811
00> -6424
01> -9851
00> -6380
01> -9769
00> -6325
01> -9667
00> -6328
01> -9665
00> -6397
01> -9800
00> -6406
01> -9834
00> -6375
01> -9759
00> -6327
01> -9662
00> -6336
01> -9666
00> -6397
01> -9799
00> -6406
01> -9826
00> -6362
01> -9742
00> -6316
01> -9644
00> -6331
01> -9661
00> -6404
01> -9804
00> -6416
01> -9841
00> -6373
01> -9752
00> -6314
01> -9650
00> -6322
01> -9657
00> -6397
01> -9799
00> -6411
01> -9831
00> -6366
01> -9754
00> -6310
01> -9655
00> -6318
01> -9660
00> -6392
01> -9800
00> -6404
01> -9837
00> -6361
01> -9757
00> -6307
01> -9651
00> -6313
01> -9654
00> -6391
01> -9797
00> -6413
01> -9841
00> -6376
01> -9762
00> -6325
01> -9662
00> -6327
01> -9659
00> -6386
01> -9782
00> -6398
01> -9819
00> -6366
01> -9748
00> -6317
01> -9654
00> -6327
01> -9661
00> -6400
01> -9808
00> -6411
01> -9854
00> -6370
01> -9774
00> -6319
01> -9677
00> -6336
01> -9680
00> -6407
01> -9808
00> -6418
01> -9847
00> -6372
01> -9767
00> -6321
01> -9673
00> -6331
01> -9676
00> -6401
01> -9811
00> -6417
01> -9856
00> -6375
01> -9769
00> -6321
01> -9661
00> -6325
01> -9658
00> -6402
01> -9799
00> -6417
01> -9835
00> -6374
01> -9754
00> -6321
01> -9658
00> -6321
01> -9654
00> -6391
01> -9783
00> -6411
01> -9826
00> -6362
01> -9740
00> -6307
01> -9636
00> -6321
01> -9643
00> -6389
01> -9788
00> -6408
01> -9842
00> -6365
01> -9769
00> -6308
01> -9669
00> -6315
01> -9666
00> -6390
01> -9812
00> -6409
01> -9860
00> -6371
01> -9777
00> -6317
01> -9676
00> -6318
01> -9666
00> -6386
01> -9796
00> -6401
01> -9842
00> -6362
01> -9762
00> -6315
01> -9670
00> -6323
01> -9672
00> -6392
01> -9794
00> -6404
01> -9832
00> -6369
01> -9746
00> -6317
01> -9645
00> -6312
01> -9639
00> -6379
01> -9774
00> -6399
01> -9826
00> -6361
01> -9748
00> -6311
01> -9647
00> -6311
01> -9644
00> -6381
01> -9781
00> -6397
01> -9832
00> -6364
01> -9760
00> -6315
01> -9666
00> -6319
01> -9667
00> -6392
01> -9799
00> -6411
01> -9847
00> -6369
01> -9765
00> -6314
01> -9667
00> -6313
01> -9669
00> -6387
01> -9806
00> -6401
01> -9842
00> -6358
01> -9763
00> -6311
01> -9664
00> -6320
01> -9657
00> -6385
01> -9786
00> -6410
01> -9841
00> -6377
01> -9769
00> -6321
01> -9659
00> -6318
01> -9643
00> -6389
01> -9784
00> -6417
01> -9846
00> -6376
01> -9766
00> -6314
01> -9657
00> -6305
01> -9636
00> -6370
01> -9762
00> -6396
01> -9826
00> -6364
01> -9763
00> -6314
01> -9661
00> -6317
01> -9654
00> -6387
01> -9784
00> -6414
01> -9841
00> -6378
01> -9766
00> -6324
01> -9664
00> -6317
01> -9652
00> -6384
01> -9786
00> -6407
01> -9846
00> -6366
01> -9766
00> -6313
01> -9654
00> -6309
01> -9640
00> -6374
01> -9769
00> -6396
01> -9820
00> -6354
01> -9742
00> -6298
01> -9639
00> -6295
01> -9616
00> -6362
01> -9746
00> -6385
01> -9804
00> -6352
01> -9737
00> -6302
01> -9636
00> -6304
01> -9619
00> -6377
01> -9755
00> -6404
01> -9821
00> -6372
01> -9755
00> -6319
01> -9654
00> -6308
01> -9634
00> -6369
01> -9762
00> -6391
01> -9816
00> -6355
01> -9744
00> -6299
01> -9646
00> -6295
01> -9634
00> -6370
01> -9771
00> -6395
01> -9833
00> -6357
01> -9762
00> -6306
01> -9656
00> -6303
01> -9637
00> -6370
01> -9769
00> -6397
01> -9832
00> -6354
01> -9754
00> -6298
01> -9641
00> -6294
01> -9630
00> -6371
01> -9777
00> -6396
01> -9832
00> -6350
01> -9749
00> -6299
01> -9646
00> -6299
01> -9628
00> -6371
01> -9767
00> -6398
01> -9832
00> -6365
01> -9764
00> -6311
01> -9669
00> -6303
01> -9647
00> -6369
01> -9771
00> -6396
01> -9837
00> -6366
01> -9775
00> -6310
01> -9669
00> -6300
01> -9640
00> -6369
01> -9769
00> -6399
01> -9842
00> -6366
01> -9782
00> -6310
01> -9674
00> -6295
01> -9642
00> -6365
01> -9765
00> -6391
01> -9822
00> -6353
01> -9746
00> -6302
01> -9642
00> -6307
01> -9629
00> -6377
01> -9758
00> -6406
01> -9829
00> -6376
01> -9761
00> -6315
01> -9657
00> -6298
01> -9631
00> -6366
01> -9759
00> -6397
01> -9824
00> -6367
01> -9759
00> -6319
01> -9657
00> -6305
01> -9629
00> -6371
01> -9754
00> -6399
01> -9826
00> -6370
01> -9771
00> -6316
01> -9669
00> -6303
01> -9637
00> -6364
01> -9758
00> -6389
01> -9821
00> -6357
01> -9751
00> -6301
01> -9649
00> -6291
01> -9614
00> -6359
01> -9743
00> -6398
01> -9822
00> -6365
01> -9751
00> -6312
01> -9649
00> -6305
01> -9633
00> -6372
01> -9767
00> -6399
01> -9836
00> -6361
01> -9765
00> -6302
01> -9650
00> -6292
01> -9613
00> -6352
01> -9741
00> -6381
01> -9817
00> -6352
01> -9762
00> -6304
01> -9666
00> -6297
01> -9644
00> -6364
01> -9769
00> -6396
01> -9838
00> -6364
01> -9759
00> -6310
01> -9653
00> -6297
01> -9621
00> -6360
01> -9746
00> -6396
01> -9825
00> -6361
01> -9763
00> -6307
01> -9658
00> -6299
01> -9632
00> -6366
01> -9760
00> -6392
01> -9826
00> -6355
01> -9756
00> -6302
01> -9651
00> -6289
01> -9613
00> -6351
01> -9731
00> -6380
01> -9806
00> -6350
01> -9746
00> -6289
01> -9634
00> -6271
01> -9597
00> -6330
01> -9719
00> -6366
01> -9792
00> -6334
01> -9724
00> -6281
01> -9622
00> -6274
01> -9596
00> -6340
01> -9725
00> -6374
01> -9801
00> -6342
01> -9736
00> -6297
01> -9637
00> -6286
01> -9610
00> -6349
01> -9731
00> -6378
01> -9811
00> -6347
01> -9744
00> -6300

00> -6288
01> -9621
00> -6350
01> -9742
00> -6379
01> -9817
00> -6355
01> -9761
00> -6304
01> -9665
00> -6287
01> -9620
00> -6353
01> -9737
00> -6387
01> -9812
00> -6364
01> -9752
00> -6312
01> -9642
00> -6299
01> -9607
00> -6369
01> -9731
00> -6399
01> -9804
00> -6363
01> -9736
00> -6308
01> -9639
00> -6290
01> -9610
00> -6361
01> -9740
00> -6396
01> -9818
00> -6361
01> -9752
00> -6310
01> -9652
00> -6293
01> -9618
00> -6351
01> -9737
00> -6387
01> -9817
00> -6362
01> -9752
00> -6309
01> -9647
00> -6297
01> -9609
00> -6362
01> -9734
00> -6396
01> -9817
00> -6362
01> -9756
00> -6308
01> -9654
00> -6298
01> -9619
00> -6360
01> -9741
00> -6399
01> -9820
00> -6371
01> -9749
00> -6320
01> -9649
00> -6306
01> -9619
00> -6364
01> -9734
00> -6396
01> -9814
00> -6366
01> -9758
00> -6310
01> -9651
00> -6290
01> -9603
00> -6352
01> -9719
00> -6387
01> -9802
00> -6359
01> -9745
00> -6307
01> -9649
00> -6287
01> -9616
00> -6349
01> -9728
00> -6390
01> -9818
00> -6359
01> -9760
00> -6306
01> -9655
00> -6285
01> -9612
00> -6346
01> -9729
00> -6387
01> -9816
00> -6361
01> -9759
00> -6309
01> -9654
00> -6296
01> -9618
00> -6351
01> -9731
00> -6387
01> -9809
00> -6354
01> -9751
00> -6299
01> -9649
00> -6286
01> -9611
00> -6354
01> -9737
00> -6399
01> -9829
00> -6369
01> -9763
00> -6310
01> -9652
00> -6281
01> -9601
00> -6346
01> -9720
00> -6389
01> -9814
00> -6357
01> -9759
00> -6301
01> -9654
00> -6286
01> -9617
00> -6346
01> -9720
00> -6381
01> -9799
00> -6344
01> -9741
00> -6291
01> -9634
00> -6276
01> -9592
00> -6343
01> -9717
00> -6382
01> -9817
00> -6347
01> -9764
00> -6292
01> -9648
00> -6267
01> -9594
00> -6328
01> -9702
00> -6374
01> -9800
00> -6350
01> -9745
00> -6299
01> -9640
00> -6278
01> -9592
00> -6336
01> -9702
00> -6376
01> -9791
00> -6350
01> -9738
00> -6306
01> -9652
00> -6290
01> -9609
00> -6353
01> -9716
00> -6391
01> -9797
00> -6353
01> -9736
00> -6305
01> -9639
00> -6289
01> -9602
00> -6351
01> -9712
00> -6389
01> -9807
00> -6362
01> -9761
00> -6311
01> -9666
00> -6284
01> -9615
00> -6344
01> -9727
00> -6382
01> -9814
00> -6354
01> -9748
00> -6305
01> -9643
00> -6282
01> -9597
00> -6340
01> -9707
00> -6382
01> -9794
00> -6351
01> -9734
00> -6299
01> -9629
00> -6277
01> -9579
00> -6342
01> -9685
00> -6386
01> -9781
00> -6351
01> -9721
00> -6298
01> -9616
00> -6274
01> -9564
00> -6337
01> -9672
00> -6386
01> -9767
00> -6359
01> -9715
00> -6302
01> -9622
00> -6273
01> -9571
00> -6326
01> -9673
00> -6375
01> -9767
00> -6356
01> -9724
00> -6304
01> -9629
00> -6281
01> -9586
00> -6344
01> -9702
00> -6387
01> -9799
00> -6359
01> -9742
00> -6304
01> -9638
00> -6279
01> -9584
00> -6346
01> -9693
00> -6388
01> -9788
00> -6357
01> -9744
00> -6308
01> -9646
00> -6289
01> -9590
00> -6344
01> -9696
00> -6387
01> -9791
00> -6353
01> -9737
00> -6298
01> -9628
00> -6279
01> -9574
00> -6337
01> -9679
00> -6379
01> -9779
00> -6357
01> -9741
00> -6311
01> -9645
00> -6283
01> -9593
00> -6339
01> -9692
00> -6387
01> -9786
00> -6357
01> -9738
00> -6307
01> -9642
00> -6284
01> -9596
00> -6340
01> -9704
00> -6384
01> -9797
00> -6356
01> -9749
00> -6306
01> -9648
00> -6281
01> -9589
00> -6341
01> -9694
00> -6387
01> -9789
00> -6356
01> -9731
00> -6302
01> -9624
00> -6272
01> -9571
00> -6330
01> -9675
00> -6376
01> -9776
00> -6349
01> -9725
00> -6299
01> -9629
00> -6266
01> -9567
00> -6325
01> -9671
00> -6371
01> -9773
00> -6345
01> -9729
00> -6297
01> -9636
00> -6272
01> -9575
00> -6339
01> -9674
00> -6388
01> -9784
00> -6369
01> -9746
00> -6319
01> -9649
00> -6289
01> -9594
00> -6342
01> -9694
00> -6386
01> -9793
00> -6361
01> -9749
00> -6313
01> -9647
00> -6285
01> -9590
00> -6336
01> -9689
00> -6385
01> -9794
00> -6361
01> -9754
00> -6309
01> -9647
00> -6272
01> -9580
00> -6319
01> -9671
00> -6367
01> -9769
00> -6352
01> -9731
00> -6309
01> -9629
00> -6282
01> -9566
00> -6340
01> -9662
00> -6393
01> -9774
00> -6363
01> -9734
00> -6307
01> -9627
00> -6282
01> -9565
00> -6339
01> -9667
00> -6391
01> -9784
00> -6369
01> -9751
00> -6321
01> -9652
00> -6292
01> -9594
00> -6344
01> -9696
00> -6399
01> -9805
00> -6382
01> -9764
00> -6334
01> -9661
00> -6306
01> -9597
00> -6354
01> -9691
00> -6398
01> -9797
00> -6376
01> -9758
00> -6316
01> -9649
00> -6286
01> -9579
00> -6334
01> -9663
00> -6389
01> -9773
00> -6366
01> -9739
00> -6317
01> -9634
00> -6286
01> -9571
00> -6333
01> -9667
00> -6382
01> -9774
00> -6365
01> -9730
00> -6311
01> -9629
00> -6281
01> -9561
00> -6337
01> -9659
00> -6390
01> -9771
00> -6369
01> -9738
00> -6319
01> -9641
00> -6285
01> -9571
00> -6338
01> -9655
00> -6392
01> -9772
00> -6376
01> -9742
00> -6322
01> -9644
00> -6291
01> -9586
00> -6345
01> -9677
00> -6397
01> -9785
00> -6369
01> -9752
00> -6318
01> -9653
00> -6287
01> -9586
00> -6337
01> -9672
00> -6392
01> -9783
00> -6371
01> -9747
00> -6319
01> -9649
00> -6283
01> -9580
00> -6327
01> -9662
00> -6382
01> -9771
00> -6367
01> -9742
00> -6317
01> -9647
00> -6284
01> -9573
00> -6334
01> -9666
00> -6387
01> -9779
00> -6370
01> -9757
00> -6317
01> -9667
00> -6286
01> -9595
00> -6336
01> -9676
00> -6394
01> -9790
00> -6376
01> -9755
00> -6322
01> -9652
00> -6289
01> -9584
00> -6334
01> -9666
00> -6393
01> -9786
00> -6373
01> -9756
00> -6330
01> -9661
00> -6300
01> -9591
00> -6344
01> -9676
00> -6395
01> -9781
00> -6376
01> -9755
00> -6326
01> -9658
00> -6291
01> -9584
00> -6339
01> -9661
00> -6397
01> -9777
00> -6378
01> -9757
00> -6321
01> -9654
00> -6286
01> -9575
00> -6333
01> -9658
00> -6389
01> -9779
00> -6376
01> -9753
00> -6325
01> -9657
00> -6297
01> -9596
00> -6349
01> -9685
00> -6398
01> -9797
00> -6379
01> -9770
00> -6333
01> -9679
00> -6302
01> -9609
00> -6348
01> -9691
00> -6401
01> -9811
00> -6377
01> -9776
00> -6329
01> -9676
00> -6299
01> -9604
00> -6348
01> -9682
00> -6401
01> -9797
00> -6380
01> -9772
00> -6327
01> -9674
00> -6297
01> -9600
00> -6342
01> -9675
00> -6391
01> -9787
00> -6373
01> -9753
00> -6324
01> -9653
00> -6288
01> -9571
00> -6337
01> -9657
00> -6400
01> -9786
00> -6382
01> -9754
00> -6323
01> -9652
00> -6286
01> -9574
00> -6342
01> -9653
00> -6394
01> -9768
00> -6378
01> -9741
00> -6336
01> -9650
00> -6303
01> -9586
00> -6346
01> -9662
00> -6404
01> -9781
00> -6387
01> -9760
00> -6332
01> -9662
00> -6297
01> -9590
00> -6339
01> -9661
00> -6387
01> -9781
00> -6381
01> -9767
00> -6337
01> -9671
00> -6305
01> -9601
00> -6343
01> -9671
00> -6403
01> -9789
00> -6386
01> -9769
00> -6336
01> -9666
00> -6300
01> -9589
00> -6341
01> -9672
00> -6394
01> -9789
00> -6378
01> -9764
00> -6328
01> -9673
00> -6294
01> -9604
00> -6340
01> -9672
00> -6402
01> -9796
00> -6388
01> -9776
00> -6336
01> -9677
00> -6292
01> -9591
00> -6331
01> -9654
00> -6389
01> -9777
00> -6377
01> -9759
00> -6332
01> -9673
00> -6302
01> -9597
00> -6349
01> -9666
00> -6408
01> -9783
00> -6394
01> -9764
00> -6345
01> -9669
00> -6306
01> -9594
00> -6349
01> -9669
00> -6406
01> -9789
00> -6389
01> -9766
00> -6334
01> -9667
00> -6300
01> -9581
00> -6347
01> -9650
00> -6406
01> -9778
00> -6389
01> -9758
00> -6341
01> -9667
00> -6299
01> -9587
00> -6335
01> -9656
00> -6397
01> -9786
00> -6392
01> -9772
00> -6341
01> -9679
00> -6303
01> -9591
00> -6341
01> -9658
00> -6404
01> -9786
00> -6397
01> -9779
00> -6347
01> -9687
00> -6303
01> -9599
00> -6339
01> -9665
00> -6399
01> -9793
00> -6387
01> -9777
00> -6333
01> -9671
00> -6291
01> -9588
00> -6323
01> -9648
00> -6383
01> -9771
00> -6372
01> -9765
00> -6325
01> -9667
00> -6284
01> -9580
00> -6324
01> -9642
00> -6387
01> -9764
00> -6375
01> -9756
00> -6325
01> -9659
00> -6282
01> -9575
00> -6319
01> -9641
00> -6379
01> -9767
00> -6373
01> -9756
00> -6331
01> -9665
00> -6291
01> -9581
00> -6333
01> -9654
00> -6396
01> -9780
00> -6383
01> -9761
00> -6334
01> -9662
00> -6295
01> -9582
00> -6332
01> -9646
00> -6404
01> -9782
00> -6400
01> -9774
00> -6346
01> -9674
00> -6299
01> -9589
00> -6334
01> -9647
00> -6399
01> -9774
00> -6388
01> -9763
00> -6336
01> -9667
00> -6292
01> -9586
00> -6322
01> -9636
00> -6387
01> -9761
00> -6386
01> -9756
00> -6337
01> -9661
00> -6289
01> -9566
00> -6322
01> -9617
00> -6384
01> -9747
00> -6378
01> -9746
00> -6330
01> -9649
00> -6285
01> -9567
00> -6323
01> -9631
00> -6395
01> -9769
00> -6391
01> -9770
00> -6341
01> -9679
00> -6305
01> -9598
00> -6336
01> -9653
00> -6394
01> -9771
00> -6391
01> -9767
00> -6347
01> -9684
00> -6306
01> -9599
00> -6341
01> -9651
00> -6402
01> -9777
00> -6394
01> -9764
00> -6346
01> -9671
00> -6300
01> -9584
00> -6330
01> -9627
00> -6397
01> -9756
00> -6396
01> -9757
00> -6346
01> -9662
00> -6301
01> -9577
00> -6329
01> -9621
00> -6388
01> -9742
00> -6376
01> -9734
00> -6327
01> -9638
00> -6287
01> -9558
00> -6314
01> -9602
00> -6376
01> -9729
00> -6373
01> -9728
00> -6315
01> -9630
00> -6244
01> -9521
00> -6266
01> -9569
00> -6316
01> -9689
00> -6295
01> -9669
00> -6256
01> -9564
00> -6212
01> -9470
00> -6204
01> -9469
00> -6219
01> -9531
00> -6195
01> -9471
00> -6105
01> -9309
00> -5991
01> -9121
00> -5984
01> -9092
00> -6005
01> -9148
00> -5950
01> -9060
00> -5866
01> -8898
00> -5777
01> -8741
00> -5770
01> -8729
00> -5814
01> -8819
00> -5795
01> -8789
00> -5724
01> -8660
00> -5659
01> -8525
00> -5685
01> -8557
00> -5761
01> -8683
00> -5762
01> -8685
00> -5717
01> -8587
00> -5671
01> -8485
00> -5707
01> -8538
00> -5773
01> -8668
00> -5774
01> -8671
00> -5737
01> -8599
00> -5708
01> -8529
00> -5757
01> -8612
00> -5849
01> -8787
00> -5879
01> -8835
00> -5863
01> -8793
00> -5847
01> -8748
00> -5899
01> -8826
00> -5993
01> -8999
00> -6025
01> -9049
00> -6012
01> -9002
00> -5996
01> -8956
00> -6046
01> -9026
00> -6134
01> -9191
00> -6159
01> -9231
00> -6136
01> -9170
00> -6112
01> -9106
00> -6161
01> -9169
00> -6241
01> -9324
00> -6251
01> -9351
00> -6220
01> -9283
00> -6184
01> -9209
00> -6224
01> -9272
00> -6302
01> -9428
00> -6313
01> -9452
00> -6279
01> -9382
00> -6245
01> -9310
00> -6279
01> -9362
00> -6347
01> -9514
00> -6356
01> -9527
00> -6315
01> -9449
00> -6279
01> -9378
00> -6314
01> -9434
00> -6392
01> -9586
00> -6404
01> -9615
00> -6360
01> -9526
00> -6317
01> -9439
00> -6347
01> -9482
00> -6419
01> -9629
00> -6424
01> -9645
00> -6383
01> -9560
00> -6343
01> -9480
00> -6371
01> -9526
00> -6435
01> -9657
00> -6438
01> -9669
00> -6400
01> -9586
00> -6356
01> -9511
00> -6384
01> -9562
00> -6454
01> -9692
00> -6462
01> -9702
00> -6417
01> -9616
00> -6371
01> -9527
00> -6391
01> -9559
00> -6458
01> -9694
00> -6472
01> -9724
00> -6438
01> -9646
00> -6394
01> -9566
00> -6422
01> -9606
00> -6485
01> -9736
00> -6494
01> -9759
00> -6447
01> -9669
00> -6394
01> -9576
00> -6418
01> -9606
00> -6489
01> -9742
00> -6495
01> -9765
00> -6448
01> -9676
00> -6406
01> -9581
00> -6431
01> -9620
00> -6492
01> -9747
00> -6492
01> -9753
00> -6444
01> -9665
00> -6397
01> -9575
00> -6426
01> -9614
00> -6494
01> -9753
00> -6500
01> -9771
00> -6452
01> -9677
00> -6402
01> -9574
00> -6419
01> -9602
00> -6484
01> -9739
00> -6486
01> -9753
00> -6444
01> -9667
00> -6400
01> -9574
00> -6421
01> -9599
00> -6491
01> -9743
00> -6500
01> -9770
00> -6456
01> -9684
00> -6408
01> -9588
00> -6432
01> -9621
00> -6500
01> -9762
00> -6508
01> -9782
00> -6467
01> -9704
00> -6424
01> -9611
00> -6436
01> -9633
00> -6507
01> -9774
00> -6512
01> -9792
00> -6465
01> -9704
00> -6419
01> -9616
00> -6436
01> -9636
00> -6500
01> -9764
00> -6506
01> -9779
00> -6464
01> -9693
00> -6425
01> -9612
00> -6444
01> -9644
00> -6512
01> -9781
00> -6521
01> -9796
00> -6471
01> -9699
00> -6418
01> -9598
00> -6432
01> -9616
00> -6499
01> -9746
00> -6503
01> -9764
00> -6461
01> -9684
00> -6417
01> -9600
00> -6437
01> -9632
00> -6511
01> -9767
00> -6516
01> -9793
00> -6468
01> -9701
00> -6419
01> -9600
00> -6432
01> -9617
00> -6497
01> -9756
00> -6506
01> -9784
00> -6466
01> -9704
00> -6420
01> -9612
00> -6435
01> -9627
00> -6501
01> -9756
00> -6505
01> -9777
00> -6464
01> -9694
00> -6419
01> -9601
00> -6432
01> -9621
00> -6501
01> -9758
00> -6504
01> -9776
00> -6459
01> -9691
00> -6419
01> -9606
00> -6438
01> -9636
00> -6503
01> -9767
00> -6512
01> -9793
00> -6476
01> -9711
00> -6424
01> -9611
00> -6432
01> -9617
00> -6500
01> -9751
00> -6509
01> -9781
00> -6467
01> -9700
00> -6415
01> -9602
00> -6416
01> -9606
00> -6484
01> -9734
00> -6498
01> -9769
00> -6462
01> -9698
00> -6421
01> -9614
00> -6430
01> -9623
00> -6501
01> -9755
00> -6511
01> -9782
00> -6458
01> -9692
00> -6409
01> -9595
00> -6422
01> -9604
00> -6489
01> -9741
00> -6504
01> -9777
00> -6467
01> -9699
00> -6416
01> -9597
00> -6432
01> -9612
00> -6501
01> -9751
00> -6512
01> -9785
00> -6464
01> -9690
00> -6416
01> -9599
00> -6432
01> -9621
00> -6504
01> -9761
00> -6520
01> -9800
00> -6476
01> -9720
00> -6420
01> -9622
00> -6424
01> -9627
00> -6495
01> -9761
00> -6512
01> -9801
00> -6469
01> -9721
00> -6421
01> -9619
00> -6429
01> -9619
00> -6502
01> -9752
00> -6509
01> -9777
00> -6462
01> -9690
00> -6417
01> -9597
00> -6427
01> -9607
00> -6497
01> -9741
00> -6513
01> -9781
00> -6477
01> -9706
00> -6431
01> -9608
00> -6437
01> -9605
00> -6501
01> -9748
00> -6514
01> -9790
00> -6472
01> -9716
00> -6427
01> -9622
00> -6436
01> -9627
00> -6506
01> -9765
00> -6528
01> -9809
00> -6486
01> -9724
00> -6434
01> -9624
00> -6438
01> -9634
00> -6507
01> -9771
00> -6522
01> -9813
00> -6479
01> -9733
00> -6428
01> -9626
00> -6437
01> -9627
00> -6509
01> -9764
00> -6531
01> -9809
00> -6492
01> -9735
00> -6436
01> -9626
00> -6438
01> -9622
00> -6511
01> -9753
00> -6522
01> -9804
00> -6478
01> -9719
00> -6431
01> -9617
00> -6434
01> -9616
00> -6504
01> -9751
00> -6518
01> -9793
00> -6477
01> -9723
00> -6434
01> -9626
00> -6441
01> -9621
00> -6503
01> -9751
00> -6519
01> -9786
00> -6482
01> -9715
00> -6427
01> -9618
00> -6428
01> -9611
00> -6501
01> -9747
00> -6521
01> -9801
00> -6481
01> -9724
00> -6422
01> -9614
00> -6419
01> -9608
00> -6491
01> -9749
00> -6515
01> -9791
00> -6475
01> -9704
00> -6426
01> -9611
00> -6434
01> -9616
00> -6503
01> -9756
00> -6527
01> -9814
00> -6487
01> -9741
00> -6434
01> -9636
00> -6434
01> -9632
00> -6503
01> -9756
00> -6526
01> -9801
00> -6487
01> -9737
00> -6432
01> -9640
00> -6437
01> -9627
00> -6506
01> -9760
00> -6527
01> -9812
00> -6490
01> -9732
00> -6439
01> -9624
00> -6437
01> -9607
00> -6504
01> -9746
00> -6525
01> -9795
00> -6481
01> -9714
00> -6429
01> -9608
00> -6426
01> -9589
00> -6494
01> -9721
00> -6521
01> -9781
00> -6484
01> -9711
00> -6434
01> -9609
00> -6432
01> -9603
00> -6504
01> -9739
00> -6531
01> -9799
00> -6491
01> -9727
00> -6432
01> -9619
00> -6435
01> -9612
00> -6499
01> -9742
00> -6516
01> -9784
00> -6481
01> -9708
00> -6436
01> -9616
00> -6437
01> -9609
00> -6508
01> -9738
00> -6532
01> -9797
00> -6494
01> -9731
00> -6441
01> -9641
00> -6437
01> -9626
00> -6506
01> -9747
00> -6534
01> -9799
00> -6493
01> -9727
00> -6441
01> -9626
00> -6442
01> -9609
00> -6510
01> -9746
00> -6532
01> -9807
00> -6498
01> -9736
00> -6447
01> -9636
00> -6442
01> -9608
00> -6506
01> -9734
00> -6531
01> -9802
00> -6501
01> -9729
00> -6454
01> -9637
00> -6455
01> -9631
00> -6519
01> -9761
00> -6542
01> -9815
00> -6507
01> -9736
00> -6449
01> -9626
00> -6446
01> -9604
00> -6514
01> -9729
00> -6537
01> -9799
00> -6496
01> -9731
00> -6440
01> -9631
00> -6431
01> -9613
00> -6502
01> -9744
00> -6526
01> -9807
00> -6491
01> -9732
00> -6442
01> -9639
00> -6437
01> -9622
00> -6507
01> -9752
00> -6546
01> -9828
00> -6515
01> -9761
00> -6451
01> -9646
00> -6446
01> -9622
00> -6517
01> -9748
00> -6541
01> -9813
00> -6499
01> -9743
00> -6452
01> -9644
00> -6444
01> -9622
00> -6509
01> -9749
00> -6538
01> -9807
00> -6497
01> -9734
00> -6442
01> -9629
00> -6441
01> -9608
00> -6505
01> -9736
00> -6528
01> -9797
00> -6492
01> -9725
00> -6439
01> -9621
00> -6433
01> -9596
00> -6499
01> -9730
00> -6531
01> -9801
00> -6503
01> -9742
00> -6451
01> -9640
00> -6440
01> -9615
00> -6507
01> -9745
00> -6535
01> -9811
00> -6504
01> -9751
00> -6453
01> -9651
00> -6441
01> -9620
00> -6507
01> -9743
00> -6538
01> -9814
00> -6509
01> -9747
00> -6455
01> -9647
00> -6438
01> -9612
00> -6496
01> -9729
00> -6530
01> -9798
00> -6494
01> -9729
00> -6441
01> -9630
00> -6432
01> -9606
00> -6498
01> -9726
00> -6529
01> -9801
00> -6496
01> -9734
00> -6441
01> -9629
00> -6427
01> -9599
00> -6493
01> -9724
00> -6531
01> -9801
00> -6501
01> -9741
00> -6456
01> -9649
00> -6446
01> -9617
00> -6507
01> -9742
00> -6534
01> -9808
00> -6502
01> -9738
00> -6447
01> -9638
00> -6432
01> -9607
00> -6500
01> -9735
00> -6536
01> -9812
00> -6506
01> -9747
00> -6451
01> -9640
00> -6433
01> -9604
00> -6492
01> -9721
00> -6531
01> -9797
00> -6499
01> -9732
00> -6446
01> -9629
00> -6429
01> -9587
00> -6489
01> -9705
00> -6522
01> -9782
00> -6491
01> -9716
00> -6445
01> -9628
00> -6432
01> -9592
00> -6492
01> -9715
00> -6527
01> -9798
00> -6502
01> -9742
00> -6444
01> -9639
00> -6428
01> -9602
00> -6496
01> -9725
00> -6530
01> -9809
00> -6502
01> -9753
00> -6446
01> -9650
00> -6432
01> -9617
00> -6502
01> -9741
00> -6538
01> -9822
00> -6504
01> -9748
00> -6449
01> -9641
00> -6431
01> -9603
00> -6493
01> -9720
00> -6529
01> -9798
00> -6499
01> -9738
00> -6446
01> -9636
00> -6429
01> -9596
00> -6491
01> -9707
00> -6529
01> -9787
00> -6499
01> -9743
00> -6442
01> -9637
00> -6426
01> -9589
00> -6489
01> -9702
00> -6526
01> -9785
00> -6494
01> -9722
00> -6439
01> -9616
00> -6424
01> -9581
00> -6486
01> -9711
00> -6527
01> -9806
00> -6500
01> -9748
00> -6446
01> -9642
00> -6428
01> -9605
00> -6489
01> -9716
00> -6527
01> -9801
00> -6501
01> -9749
00> -6456
01> -9656
00> -6438
01> -9618
00> -6491
01> -9727
00> -6525
01> -9801
00> -6494
01> -9734
00> -6442
01> -9629
00> -6424
01> -9588
00> -6487
01> -9702
00> -6525
01> -9794
00> -6494
01> -9726
00> -6445
01> -9626
00> -6427
01> -9591
00> -6486
01> -9709
00> -6526
01> -9801
00> -6493
01> -9740
00> -6437
01> -9635
00> -6414
01> -9593
00> -6480
01> -9715
00> -6521
01> -9800
00> -6490
01> -9738
00> -6442
01> -9637
00> -6426
01> -9594
00> -6488
01> -9710
00> -6530
01> -9806
00> -6502
01> -9763
00> -6452
01> -9666
00> -6426
01> -9618
00> -6488
01> -9728
00> -6529
01> -9812
00> -6502
01> -9760
00> -6450
01> -9661
00> -6431
01> -9611
00> -6494
01> -9724
00> -6529
01> -9814
00> -6496
01> -9751
00> -6444
01> -9645
00> -6419
01> -9590
00> -6477
01> -9697
00> -6517
01> -9789
00> -6492
01> -9739
00> -6440
01> -9635
00> -6414
01> -9584
00> -6472
01> -9690
00> -6517
01> -9786
00> -6498
01> -9742
00> -6446
01> -9642
00> -6419
01> -9602
00> -6476
01> -9714
00> -6521
01> -9807
00> -6492
01> -9754
00> -6444
01> -9658
00> -6424
01> -9613
00> -6485
01> -9724
00> -6526
01> -9813
00> -6497
01> -9756
00> -6439
01> -9655
00> -6413
01> -9599
00> -6475
01> -9708
00> -6522
01> -9806
00> -6498
01> -9762
00> -6447
01> -9659
00> -6422
01> -9607
00> -6480
01> -9714
00> -6524
01> -9801
00> -6496
01> -9743
00> -6437
01> -9638
00> -6405
01> -9584
00> -6471
01> -9701
00> -6525
01> -9811
00> -6499
01> -9767
00> -6449
01> -9668
00> -6425
01> -9612
00> -6479
01> -9715
00> -6518
01> -9808
00> -6496
01> -9756
00> -6446
01> -9656
00> -6419
01> -9606
00> -6474
01> -9719
00> -6517
01> -9812
00> -6487
01> -9754
00> -6427
01> -9650
00> -6402
01> -9589
00> -6462
01> -9692
00> -6514
01> -9794
00> -6499
01> -9752
00> -6447
01> -9655
00> -6413
01> -9594
00> -6469
01> -9692
00> -6519
01> -9795
00> -6492
01> -9751
00> -6447
01> -9662
00> -6427
01> -9607
00> -6481
01> -9708
00> -6527
01> -9819
00> -6502
01> -9769
00> -6449
01> -9667
00> -6422
01> -9617
00> -6478
01> -9720
00> -6527
01> -9824
00> -6509
01> -9781
00> -6461
01> -9677
00> -6436
01> -9613
00> -6490
01> -9716
00> -6541
01> -9823
00> -6519
01> -9780
00> -6461
01> -9683
00> -6430
01> -9616
00> -6489
01> -9712
00> -6537
01> -9812
00> -6515
01> -9772
00> -6461
01> -9669
00> -6432
01> -9611
00> -6489
01> -9701
00> -6536
01> -9799
00> -6511
01> -9760
00> -6464
01> -9666
00> -6436
01> -9603
00> -6490
01> -9706
00> -6539
01> -9813
00> -6512
01> -9766
00> -6458
01> -9661
00> -6429
01> -9597
00> -6482
01> -9697
00> -6536
01> -9807
00> -6518
01> -9770
00> -6464
01> -9672
00> -6421
01> -9595
00> -6475
01> -9695
00> -6532
01> -9806
00> -6512
01> -9771
00> -6462
01> -9676
00> -6429
01> -9606
00> -6479
01> -9696
00> -6525
01> -9800
00> -6506
01> -9761
00> -6452
01> -9657
00> -6413
01> -9590
00> -6464
01> -9678
00> -6518
01> -9787
00> -6504
01> -9751
00> -6457
01> -9656
00> -6425
01> -9593
00> -6472
01> -9678
00> -6521
01> -9774
00> -6498
01> -9732
00> -6447
01> -9637
00> -6415
01> -9573
00> -6467
01> -9663
00> -6526
01> -9782
00> -6511
01> -9756
00> -6460
01> -9655
00> -6428
01> -9586
00> -6471
01> -9667
00> -6524
01> -9778
00> -6502
01> -9746
00> -6451
01> -9645
00> -6419
01> -9575
00> -6474
01> -9665
00> -6529
01> -9782
00> -6507
01> -9744
00> -6452
01> -9646
00> -6422
01> -9585
00> -6477
01> -9676
00> -6531
01> -9791
00> -6511
01> -9751
00> -6459
01> -9652
00> -6429
01> -9585
00> -6474
01> -9665
00> -6521
01> -9764
00> -6501
01> -9730
00> -6450
01> -9632
00> -6419
01> -9566
00> -6470
01> -9657
00> -6521
01> -9771
00> -6504
01> -9736
00> -6452
01> -9641
00> -6418
01> -9572
00> -6473
01> -9665
00> -6530
01> -9786
00> -6508
01> -9748
00> -6457
01> -9649
00> -6418
01> -9580
00> -6463
01> -9666
00> -6507
01> -9773
00> -6491
01> -9734
00> -6446
01> -9643
00> -6412
01> -9577
00> -6458
01> -9654
00> -6508
01> -9764
00> -6487
01> -9737
00> -6436
01> -9646
00> -6404
01> -9573
00> -6452
01> -9656
00> -6513
01> -9773
00> -6497
01> -9744
00> -6448
01> -9646
00> -6417
01> -9588
00> -6472
01> -9683
00> -6527
01> -9796
00> -6509
01> -9764
00> -6452
01> -9662
00> -6414
01> -9587
00> -6459
01> -9661
00> -6515
01> -9781
00> -6502
01> -9766
00> -6464
01> -9685
00> -6429
01> -9609
00> -6474
01> -9683
00> -6526
01> -9797
00> -6511
01> -9769
00> -6462
01> -9670
00> -6421
01> -9588
00> -6461
01> -9661
00> -6516
01> -9776
00> -6501
01> -9744
00> -6448
01> -9652
00> -6409
01> -9570
00> -6460
01> -9646
00> -6517
01> -9772
00> -6501
01> -9747
00> -6450
01> -9646
00> -6406
01> -9566
00> -6448
01> -9636
00> -6511
01> -9764
00> -6499
01> -9740
00> -6450
01> -9648
00> -6417
01> -9576
00> -6456
01> -9648
00> -6513
01> -9767
00> -6497
01> -9732
00> -6447
01> -9634
00> -6406
01> -9552
00> -6452
01> -9625
00> -6517
01> -9755
00> -6511
01> -9750
00> -6461
01> -9656
00> -6411
01> -9563
00> -6453
01> -9623
00> -6512
01> -9741
00> -6494
01> -9721
00> -6443
01> -9626
00> -6403
01> -9549
00> -6447
01> -9627
00> -6507
01> -9754
00> -6501
01> -9737
00> -6457
01> -9646
00> -6423
01> -9576
00> -6470
01> -9644
00> -6535
01> -9777
00> -6518
01> -9756
00> -6474
01> -9656
00> -6439
01> -9587
00> -6472
01> -9654
00> -6532
01> -9776
00> -6524
01> -9752
00> -6479
01> -9653
00> -6433
01> -9567
00> -6474
01> -9634
00> -6527
01> -9757
00> -6517
01> -9740
00> -6471
01> -9644
00> -6434
01> -9562
00> -6472
01> -9622
00> -6535
01> -9751
00> -6527
01> -9742
00> -6482
01> -9649
00> -6443
01> -9562
00> -6479
01> -9627
00> -6540
01> -9764
00> -6534
01> -9752
00> -6486
01> -9664
00> -6448
01> -9591
00> -6486
01> -9652
00> -6545
01> -9774
00> -6534
01> -9757
00> -6481
01> -9658
00> -6438
01> -9579
00> -6474
01> -9639
00> -6531
01> -9759
00> -6528
01> -9752
00> -6487
01> -9671
00> -6449
01> -9594
00> -6481
01> -9652
00> -6534
01> -9774
00> -6521
01> -9757
00> -6474
01> -9657
00> -6428
01> -9572
00> -6461
01> -9626
00> -6518
01> -9752
00> -6507
01> -9738
00> -6462
01> -9643
00> -6428
01> -9566
00> -6461
01> -9614
00> -6524
01> -9739
00> -6515
01> -9732
00> -6469
01> -9644
00> -6431
01> -9567
00> -6467
01> -9632
00> -6525
01> -9759
00> -6522
01> -9750
00> -6472
01> -9659
00> -6430
01> -9579
00> -6466
01> -9638
00> -6532
01> -9757
00> -6524
01> -9750
00> -6474
01> -9661
00> -6434
01> -9578
00> -6465
01> -9631
00> -6530
01> -9756
00> -6522
01> -9749
00> -6472
01> -9657
00> -6426
01> -9571
00> -6461
01> -9628
00> -6527
01> -9757
00> -6518
01> -9753
00> -6475
01> -9661
00> -6433
01> -9577
00> -6463
01> -9627
00> -6522
01> -9755
00> -6514
01> -9752
00> -6464
01> -9656
00> -6423
01> -9569
00> -6456
01> -9627
00> -6519
01> -9759
00> -6516
01> -9757
00> -6467
01> -9657
00> -6429
01> -9586
00> -6464
01> -9641
00> -6531
01> -9771
00> -6527
01> -9764
00> -6486
01> -9675
00> -6452
01> -9597
00> -6479
01> -9642
00> -6546
01> -9775
00> -6541
01> -9767
00> -6484
01> -9668
00> -6431
01> -9569
00> -6461
01> -9611
00> -6525
01> -9736
00> -6518
01> -9741
00> -6472
01> -9657
00> -6430
01> -9564
00> -6463
01> -9611
00> -6522
01> -9743
00> -6514
01> -9734
00> -6468
01> -9640
00> -6427
01> -9556
00> -6461
01> -9611
00> -6535
01> -9755
00> -6536
01> -9761
00> -6493
01> -9675
00> -6446
01> -9589
00> -6469
01> -9635
00> -6534
01> -9766
00> -6538
01> -9771
00> -6501
01> -9691
00> -6462
01> -9610
00> -6487
01> -9644
00> -6545
01> -9761
00> -6537
01> -9757
00> -6491
01> -9670
00> -6446
01> -9584
00> -6468
01> -9619
00> -6531
01> -9749
00> -6532
01> -9753
00> -6490
01> -9667
00> -6449
01> -9596
00> -6472
01> -9629
00> -6534
01> -9752
00> -6534
01> -9764
00> -6491
01> -9679
00> -6443
01> -9591
00> -6469
01> -9627
00> -6537
01> -9762
00> -6534
01> -9763
00> -6492
01> -9680
00> -6448
01> -9594
00> -6472
01> -9636
00> -6542
01> -9774
00> -6546
01> -9777
00> -6504
01> -9686
00> -6456
01> -9596
00> -6476
01> -9625
00> -6544
01> -9759
00> -6551
01> -9773
00> -6506
01> -9683
00> -6462
01> -9601
00> -6484
01> -9637
00> -6545
01> -9764
00> -6546
01> -9778
00> -6502
01> -9692
00> -6453
01> -9604
00> -6472
01> -9633
00> -6532
01> -9760
00> -6539
01> -9782
00> -6498
01> -9694
00> -6453
01> -9601
00> -6471
01> -9621
00> -6535
01> -9755
00> -6542
01> -9776
00> -6500
01> -9695
00> -6462
01> -9614
00> -6488
01> -9647
00> -6556
01> -9775
00> -6554
01> -9787
00> -6510
01> -9698
00> -6469
01> -9609
00> -6489
01> -9637
00> -6552
01> -9766
00> -6556
01> -9781
00> -6509
01> -9694
00> -6455
01> -9597
00> -6478
01> -9632
00> -6541
01> -9767
00> -6546
01> -9784
00> -6504
01> -9712
00> -6457
01> -9625
00> -6480
01> -9652
00> -6551
01> -9785
00> -6555
01> -9803
00> -6510
01> -9715
00> -6458
01> -9624
00> -6472
01> -9645
00> -6541
01> -9774
00> -6546
01> -9796
00> -6501
01> -9708
00> -6460
01> -9621
00> -6478
01> -9647
00> -6543
01> -9779
00> -6550
01> -9796
00> -6510
01> -9717
00> -6464
01> -9619
00> -6480
01> -9639
00> -6540
01> -9773
00> -6548
01> -9791
00> -6507
01> -9706
00> -6465
01> -9614
00> -6477
01> -9626
00> -6544
01> -9759
00> -6552
01> -9786
00> -6512
01> -9702
00> -6464
01> -9618
00> -6476
01> -9636
00> -6542
01> -9760
00> -6550
01> -9785
00> -6508
01> -9705
00> -6465
01> -9623
00> -6486
01> -9647
00> -6555
01> -9781
00> -6561
01> -9808
00> -6517
01> -9731
00> -6467
01> -9634
00> -6481
01> -9644
00> -6543
01> -9775
00> -6549
01> -9799
00> -6506
01> -9717
00> -6454
01> -9617
00> -6464
01> -9627
00> -6534
01> -9755
00> -6540
01> -9783
00> -6494
01> -9704
00> -6449
01> -9624
00> -6466
01> -9644
00> -6526
01> -9766
00> -6534
01> -9794
00> -6499
01> -9722
00> -6453
01> -9626
00> -6457
01> -9630
00> -6522
01> -9759
00> -6534
01> -9786
00> -6494
01> -9707
00> -6448
01> -9615
00> -6474
01> -9632
00> -6533
01> -9757
00> -6537
01> -9792
00> -6496
01> -9710
00> -6453
01> -9620
00> -6467
01> -9647
00> -6532
01> -9781
00> -6541
01> -9806
00> -6501
01> -9717
00> -6446
01> -9614
00> -6452
01> -9615
00> -6526
01> -9756
00> -6544
01> -9796
00> -6507
01> -9717
00> -6461
01> -9622
00> -6474
01> -9626
00> -6536
01> -9762
00> -6542
01> -9796
00> -6506
01> -9717
00> -6460
01> -9630
00> -6479
01> -9646
00> -6551
01> -9775
00> -6562
01> -9802
00> -6519
01> -9722
00> -6473
01> -9627
00> -6479
01> -9631
00> -6547
01> -9766
00> -6557
01> -9804
00> -6512
01> -9718
00> -6456
01> -9606
00> -6466
01> -9607
00> -6534
01> -9738
00> -6548
01> -9780
00> -6512
01> -9702
00> -6463
01> -9604
00> -6472
01> -9613
00> -6542
01> -9748
00> -6562
01> -9787
00> -6526
01> -9716
00> -6480
01> -9624
00> -6484
01> -9621
00> -6549
01> -9749
00> -6562
01> -9786
00> -6530
01> -9719
00> -6487
01> -9637
00> -6496
01> -9649
00> -6565
01> -9777
00> -6579
01> -9814
00> -6537
01> -9738
00> -6486
01> -9636
00> -6488
01> -9633
00> -6547
01> -9762
00> -6561
01> -9803
00> -6519
01> -9726
00> -6471
01> -9631
00> -6478
01> -9629
00> -6541
01> -9752
00> -6552
01> -9781
00> -6516
01> -9703
00> -6462
01> -9604
00> -6464
01> -9600
00> -6534
01> -9727
00> -6556
01> -9770
00> -6517
01> -9701
00> -6471
01> -9608
00> -6476
01> -9602
00> -6541
01> -9734
00> -6556
01> -9779
00> -6520
01> -9707
00> -6479
01> -9621
00> -6476
01> -9621
00> -6544
01> -9751
00> -6567
01> -9793
00> -6532
01> -9716
00> -6475
01> -9616
00> -6474
01> -9616
00> -6535
01> -9747
00> -6548
01> -9794
00> -6509
01> -9717
00> -6466
01> -9622
00> -6472
01> -9622
00> -6540
01> -9755
00> -6564
01> -9796
00> -6521
01> -9719
00> -6469
01> -9622
00> -6465
01> -9612
00> -6527
01> -9734
00> -6552
01> -9788
00> -6512
01> -9715
00> -6463
01> -9619
00> -6470
01> -9607
00> -6532
01> -9736
00> -6548
01> -9789
00> -6514
01> -9716
00> -6466
01> -9617
00> -6467
01> -9614
00> -6528
01> -9741
00> -6552
01> -9788
00> -6519
01> -9726
00> -6470
01> -9629
00> -6473
01> -9616
00> -6537
01> -9741
00> -6559
01> -9794
00> -6517
01> -9714
00> -6464
01> -9617
00> -6465
01> -9614
00> -6536
01> -9744
00> -6558
01> -9792
00> -6524
01> -9722
00> -6475
01> -9632
00> -6464
01> -9612
00> -6531
01> -9741
00> -6557
01> -9802
00> -6526
01> -9722
00> -6476
01> -9617
00> -6472
01> -9608
00> -6542
01> -9747
00> -6573
01> -9813
00> -6537
01> -9742
00> -6481
01> -9635
00> -6478
01> -9624
00> -6543
01> -9759
00> -6570
01> -9824
00> -6534
01> -9756
00> -6481
01> -9651
00> -6467
01> -9617
00> -6525
01> -9733
00> -6551
01> -9789
00> -6517
01> -9726
00> -6470
01> -9629
00> -6465
01> -9607
00> -6526
01> -9727
00> -6554
01> -9783
00> -6520
01> -9712
00> -6472
01> -9609
00> -6460
01> -9582
00> -6522
01> -9704
00> -6547
01> -9768
00> -6519
01> -9707
00> -6472
01> -9619
00> -6468
01> -9602
00> -6539
01> -9728
00> -6569
01> -9790
00> -6538
01> -9726
00> -6492
01> -9632
00> -6486
01> -9615
00> -6556
01> -9745
00> -6583
01> -9819
00> -6546
01> -9757
00> -6488
01> -9657
00> -6474
01> -9621
00> -6536
01> -9734
00> -6554
01> -9782
00> -6521
01> -9716
00> -6476
01> -9626
00> -6468
01> -9619
00> -6533
01> -9733
00> -6557
01> -9785
00> -6525
01> -9718
00> -6471
01> -9615
00> -6459
01> -9587
00> -6527
01> -9711
00> -6555
01> -9780
00> -6522
01> -9717
00> -6481
01> -9623
00> -6479
01> -9610
00> -6539
01> -9725
00> -6567
01> -9788
00> -6532
01> -9724
00> -6477
01> -9624
00> -6471
01> -9606
00> -6538
01> -9724
00> -6568
01> -9791
00> -6529
01> -9723
00> -6467
01> -9614
00> -6454
01> -9583
00> -6522
01> -9712
00> -6553
01> -9783
00> -6524
01> -9725
00> -6476
01> -9629
00> -6467
01> -9597
00> -6527
01> -9703
00> -6552
01> -9754
00> -6519
01> -9687
00> -6459
01> -9584
00> -6451
01> -9562
00> -6512
01> -9679
00> -6538
01> -9749
00> -6508
01> -9692
00> -6469
01> -9606
00> -6461
01> -9582
00> -6523
01> -9696
00> -6555
01> -9770
00> -6523
01> -9718
00> -6471
01> -9624
00> -6452
01> -9591
00> -6511
01> -9697
00> -6544
01> -9764
00> -6520
01> -9708
00> -6471
01> -9606
00> -6456
01> -9568
00> -6517
01> -9687
00> -6552
01> -9758
00> -6524
01> -9694
00> -6474
01> -9598
00> -6457
01> -9563
00> -6511
01> -9672
00> -6542
01> -9745
00> -6512
01> -9691
00> -6466
01> -9600
00> -6452
01> -9566
00> -6515
01> -9682
00> -6549
01> -9761
00> -6524
01> -9706
00> -6473
01> -9617
00> -6456
01> -9583
00> -6524
01> -9696
00> -6558
01> -9772
00> -6529
01> -9717
00> -6478
01> -9619
00> -6457
01> -9575
00> -6530
01> -9697
00> -6567
01> -9784
00> -6532
01> -9727
00> -6480
01> -9620
00> -6460
01> -9574
00> -6517
01> -9686
00> -6556
01> -9766
00> -6527
01> -9711
00> -6475
01> -9614
00> -6456
01> -9569
00> -6516
01> -9676
00> -6558
01> -9759
00> -6531
01> -9699
00> -6476
01> -9596
00> -6456
01> -9549
00> -6519
01> -9671
00> -6559
01> -9760
00> -6527
01> -9702
00> -6472
01> -9602
00> -6452
01> -9564
00> -6516
01> -9676
00> -6551
01> -9755
00> -6521
01> -9701
00> -6472
01> -9606
00> -6458
01> -9569
00> -6516
01> -9676
00> -6545
01> -9756
00> -6497
01> -9694
00> -6426
01> -9574
00> -6373
01> -9501
00> -6442
01> -9605
00> -6499
01> -9682
00> -6442
01> -9599
00> -6325
01> -9440
00> -6267
01> -9326
00> -6313
01> -9382
00> -6323
01> -9404
00> -6246
01> -9261
00> -6146
01> -9083
00> -6080
01> -8964
00> -6096
01> -8999
00> -6109
01> -9036
00> -6062
01> -8947
00> -5989
01> -8824
00> -5951
01> -8756
00> -5997
01> -8850
00> -6039
01> -8944
00> -6027
01> -8913
00> -5996
01> -8847
00> -5997
01> -8837
00> -6066
01> -8972
00> -6123
01> -9087
00> -6117
01> -9067
00> -6088
01> -8996
00> -6082
01> -8970
00> -6157
01> -9106
00> -6215
01> -9219
00> -6202
01> -9195
00> -6165
01> -9127
00> -6158
01> -9094
00> -6231
01> -9226
00> -6287
01> -9339
00> -6273
01> -9307
00> -6236
01> -9231
00> -6227
01> -9199
00> -6289
01> -9311
00> -6347
01> -9427
00> -6334
01> -9405
00> -6293
01> -9321
00> -6277
01> -9282
00> -6343
01> -9399
00> -6391
01> -9512
00> -6374
01> -9474
00> -6333
01> -9394
00> -6317
01> -9357
00> -6380
01> -9457
00> -6430
01> -9551
00> -6405
01> -9507
00> -6356
01> -9421
00> -6331
01> -9379
00> -6386
01> -9491
00> -6433
01> -9591
00> -6418
01> -9546
00> -6367
01> -9448
00> -6346
01> -9401
00> -6406
01> -9502
00> -6451
01> -9603
00> -6432
01> -9574
00> -6392
01> -9497
00> -6377
01> -9456
00> -6444
01> -9562
00> -6491
01> -9663
00> -6465
01> -9627
00> -6414
01> -9536
00> -6384
01> -9476
00> -6437
01> -9577
00> -6487
01> -9681
00> -6470
01> -9647
00> -6416
01> -9551
00> -6389
01> -9495
00> -6439
01> -9592
00> -6489
01> -9693
00> -6475
01> -9658
00> -6435
01> -9576
00> -6413
01> -9527
00> -6467
01> -9615
00> -6521
01> -9714
00> -6496
01> -9674
00> -6440
01> -9572
00> -6408
01> -9504
00> -6464
01> -9602
00> -6514
01> -9709
00> -6500
01> -9676
00> -6449
01> -9592
00> -6426
01> -9536
00> -6464
01> -9619
00> -6509
01> -9722
00> -6494
01> -9682
00> -6449
01> -9583
00> -6419
01> -9524
00> -6470
01> -9614
00> -6522
01> -9722
00> -6501
01> -9684
00> -6454
01> -9587
00> -6429
01> -9531
00> -6477
01> -9634
00> -6533
01> -9742
00> -6512
01> -9701
00> -6459
01> -9611
00> -6429
01> -9546
00> -6475
01> -9622
00> -6523
01> -9722
00> -6506
01> -9688
00> -6464
01> -9600
00> -6437
01> -9533
00> -6482
01> -9612
00> -6536
01> -9724
00> -6516
01> -9682
00> -6462
01> -9586
00> -6420
01> -9518
00> -6469
01> -9608
00> -6519
01> -9717
00> -6501
01> -9692
00> -6453
01> -9610
00> -6425
01> -9545
00> -6482
01> -9634
00> -6539
01> -9747
00> -6511
01> -9706
00> -6462
01> -9611
00> -6432
01> -9542
00> -6477
01> -9622
00> -6530
01> -9740
00> -6514
01> -9702
00> -6466
01> -9608
00> -6433
01> -9539
00> -6480
01> -9614
00> -6527
01> -9717
00> -6502
01> -9689
00> -6459
01> -9599
00> -6429
01> -9536
00> -6476
01> -9611
00> -6528
01> -9716
00> -6513
01> -9694
00> -6472
01> -9607
00> -6446
01> -9546
00> -6494
01> -9622
00> -6547
01> -9738
00> -6525
01> -9710
00> -6466
01> -9606
00> -6429
01> -9532
00> -6480
01> -9617
00> -6538
01> -9738
00> -6525
01> -9714
00> -6478
01> -9629
00> -6441
01> -9555
00> -6484
01> -9616
00> -6544
01> -9726
00> -6531
01> -9700
00> -6481
01> -9621
00> -6447
01> -9554
00> -6492
01> -9630
00> -6548
01> -9749
00> -6535
01> -9725
00> -6487
01> -9627
00> -6450
01> -9547
00> -6491
01> -9615
00> -6539
01> -9730
00> -6517
01> -9702
00> -6476
01> -9610
00> -6442
01> -9544
00> -6488
01> -9623
00> -6543
01> -9734
00> -6525
01> -9705
00> -6479
01> -9611
00> -6442
01> -9532
00> -6479
01> -9600
00> -6535
01> -9722
00> -6528
01> -9709
00> -6487
01> -9614
00> -6450
01> -9543
00> -6487
01> -9617
00> -6540
01> -9731
00> -6527
01> -9712
00> -6481
01> -9619
00> -6441
01> -9547
00> -6481
01> -9618
00> -6541
01> -9744
00> -6541
01> -9733
00> -6498
01> -9643
00> -6462
01> -9566
00> -6502
01> -9639
00> -6555
01> -9754
00> -6534
01> -9732
00> -6484
01> -9637
00> -6444
01> -9552
00> -6486
01> -9616
00> -6546
01> -9739
00> -6539
01> -9718
00> -6489
01> -9623
00> -6451
01> -9547
00> -6491
01> -9617
00> -6548
01> -9740
00> -6537
01> -9722
00> -6493
01> -9630
00> -6457
01> -9556
00> -6496
01> -9621
00> -6556
01> -9737
00> -6548
01> -9727
00> -6506
01> -9645
00> -6462
01> -9564
00> -6496
01> -9624
00> -6552
01> -9740
00> -6545
01> -9720
00> -6497
01> -9629
00> -6460
01> -9555
00> -6494
01> -9617
00> -6556
01> -9741
00> -6544
01> -9727
00> -6491
01> -9629
00> -6451
01> -9545
00> -6486
01> -9603
00> -6549
01> -9726
00> -6542
01> -9717
00> -6492
01> -9627
00> -6452
01> -9542
00> -6486
01> -9597
00> -6540
01> -9716
00> -6531
01> -9703
00> -6490
01> -9616
00> -6457
01> -9545
00> -6492
01> -9608
00> -6551
01> -9724
00> -6553
01> -9709
00> -6507
01> -9625
00> -6467
01> -9549
00> -6497
01> -9609
00> -6556
01> -9730
00> -6551
01> -9728
00> -6507
01> -9646
00> -6468
01> -9565
00> -6502
01> -9611
00> -6556
01> -9728
00> -6545
01> -9717
00> -6491
01> -9626
00> -6447
01> -9544
00> -6479
01> -9595
00> -6544
01> -9721
00> -6538
01> -9709
00> -6497
01> -9621
00> -6454
01> -9536
00> -6489
01> -9607
00> -6552
01> -9740
00> -6544
01> -9734
00> -6498
01> -9637
00> -6459
01> -9555
00> -6488
01> -9601
00> -6548
01> -9721
00> -6544
01> -9716
00> -6502
01> -9634
00> -6461
01> -9561
00> -6490
01> -9609
00> -6554
01> -9734
00> -6547
01> -9721
00> -6499
01> -9626
00> -6449
01> -9536
00> -6478
01> -9587
00> -6543
01> -9716
00> -6537
01> -9709
00> -6482
01> -9610
00> -6437
01> -9527
00> -6472
01> -9581
00> -6539
01> -9706
00> -6534
01> -9706
00> -6492
01> -9627
00> -6454
