# SEGGER J-Link RTT Viewer V6.62 Terminal Log File
# Compiled: 16:34:01 on Jan 24 2020
# Logging started @ 07 Jun 2024 21:21:52

00> -3047
01> -5828
00> -3061
01> -5866
00> -3053
01> -5862
00> -3048
01> -5841
00> -3046
01> -5831
00> -3057
01> -5864
00> -3068
01> -5898
00> -3073
01> -5888
00> -3072
01> -5863
00> -3082
01> -5865
00> -3100
01> -5918
00> -3122
01> -5972
00> -3125
01> -5961
00> -3108
01> -5922
00> -3106
01> -5912
00> -3123
01> -5949
00> -3146
01> -5997
00> -3148
01> -5992
00> -3142
01> -5967
00> -3135
01> -5956
00> -3152
01> -6002
00> -3175
01> -6048
00> -3184
01> -6041
00> -3178
01> -6009
00> -3169
01> -5991
00> -3179
01> -6029
00> -3184
01> -6063
00> -3176
01> -6046
00> -3168
01> -6010
00> -3142
01> -5952
00> -3151
01> -5982
00> -3142
01> -5992
00> -3100
01> -5928
00> -3071
01> -5864
00> -3037
01> -5793
00> -3022
01> -5787
00> -2983
01> -5762
00> -2921
01> -5670
00> -2857
01> -5563
00> -2797
01> -5476
00> -2779
01> -5452
00> -2762
01> -5437
00> -2741
01> -5383
00> -2729
01> -5343
00> -2727
01> -5324
00> -2750
01> -5373
00> -2776
01> -5438
00> -2798
01> -5457
00> -2820
01> -5460
00> -2851
01> -5485
00> -2901
01> -5572
00> -2936
01> -5651
00> -2961
01> -5682
00> -2982
01> -5704
00> -3005
01> -5718
00> -3045
01> -5789
00> -3077
01> -5859
00> -3100
01> -5879
00> -3111
01> -5875
00> -3121
01> -5886
00> -3149
01> -5949
00> -3170
01> -6003
00> -3182
01> -6005
00> -3181
01> -5982
00> -3186
01> -5984
00> -3213
01> -6039
00> -3234
01> -6099
00> -3229
01> -6089
00> -3217
01> -6060
00> -3217
01> -6051
00> -3241
01> -6110
00> -3263
01> -6168
00> -3269
01> -6170
00> -3270
01> -6142
00> -3264
01> -6124
00> -3284
01> -6177
00> -3313
01> -6236
00> -3306
01> -6226
00> -3296
01> -6204
00> -3297
01> -6201
00> -3320
01> -6249
00> -3339
01> -6290
00> -3331
01> -6274
00> -3324
01> -6256
00> -331900> -3319
01> -6246
00> -3339
01> -6296
00> -3359
01> -6344
00> -3358
01> -6332
00> -3353
01> -6300
00> -3351
01> -6287
00> -3357
01> -6326
00> -3376
01> -6374
00> -3382
01> -6371
00> -3374
01> -6339
00> -3367
01> -6321
00> -3384
01> -6361
00> -3399
01> -6397
00> -3402
01> -6389
00> -3387
01> -6356
00> -3376
01> -6338
00> -3392
01> -6379
00> -3407
01> -6417
00> -3398
01> -6397
00> -3369
01> -6347
00> -3359
01> -6330
00> -3381
01> -6379
00> -3407
01> -6431
00> -3405
01> -6412
00> -3389
01> -6364
00> -3382
01> -6334
00> -3397
01> -6369
00> -3411
01> -6406
00> -3409
01> -6398
00> -3401
01> -6374
00> -3399
01> -6354
00> -3414
01> -6387
00> -3428
01> -6426
00> -3419
01> -6418
00> -3398
01> -6387
00> -3372
01> -6364
00> -3372
01> -6406
00> -3368
01> -6444
00> -3331
01> -6408
00> -3290
01> -6356
00> -3254
01> -6322
00> -3249
01> -6353
00> -3242
01> -6384
00> -3199
01> -6355
00> -3166
01> -6325
00> -3154
01> -6319
00> -3154
01> -6356
00> -3161
01> -6401
00> -3151
01> -6384
00> -3129
01> -6344
00> -3116
01> -6326
00> -3129
01> -6370
00> -3147
01> -6423
00> -3151
01> -6413
00> -3132
01> -6372
00> -3129
01> -6357
00> -3151
01> -6407
00> -3185
01> -6462
00> -3181
01> -6447
00> -3163
01> -6408
00> -3158
01> -6392
00> -3186
01> -6438
00> -3203
01> -6479
00> -3202
01> -6463
00> -3186
01> -6429
00> -3182
01> -6407
00> -3202
01> -6452
00> -3216
01> -6494
00> -3210
01> -6474
00> -3196
01> -6437
00> -3195
01> -6419
00> -3212
01> -6453
00> -3222
01> -6488
00> -3214
01> -6463
00> -3203
01> -6434
00> -3203
01> -6421
00> -3226
01> -6471
00> -3247
01> -6522
00> -3247
01> -6512
00> -3232
01> -6473
00> -3217
01> -6452
00> -3222
01> -6487
00> -3247
01> -6537
00> -3239
01> -6519
00> -3217
01> -6471
00> -3208
01> -6449
00> -3226
01> -6486
00> -3246
01> -6531
00> -3244
01> -6509
00> -3232
01> -6466
00> -3222
01> -6452
00> -3242
01> -6505
00> -3260
01> -6571
00> -3254
01> -6539
00> -3243
01> -6474
00> -3233
01> -6441
00> -3251
01> -6483
00> -3263
01> -6531
00> -3246
01> -6511
00> -3222
01> -6466
00> -3206
01> -6450
00> -3204
01> -6475
00> -3191
01> -6495
00> -3157
01> -6461
00> -3117
01> -6402
00> -3076
01> -6354
00> -3057
01> -6366
00> -3039
01> -6386
00> -2991
01> -6342
00> -2934
01> -6267
00> -2887
01> -6214
00> -2891
01> -6246
00> -2894
01> -6291
00> -2885
01> -6286
00> -2872
01> -6254
00> -2852
01> -6225
00> -2869
01> -6265
00> -2894
01> -6318
00> -2900
01> -6316
00> -2896
01> -6294
00> -2894
01> -6276
00> -2908
01> -6309
00> -2921
01> -6352
00> -2919
01> -6344
00> -2900
01> -6309
00> -2886
01> -6289
00> -2899
01> -6331
00> -2919
01> -6387
00> -2925
01> -6382
00> -2922
01> -6352
00> -2926
01> -6349
00> -2945
01> -6392
00> -2954
01> -6423
00> -2946
01> -6393
00> -2939
01> -6346
00> -2939
01> -6337
00> -2952
01> -6386
00> -2972
01> -6441
00> -2976
01> -6426
00> -2957
01> -6387
00> -2947
01> -6369
00> -2961
01> -6420
00> -2978
01> -6466
00> -2981
00> -3866
01> -6115
00> -3835
01> -6049
00> -3816
01> -5990
00> -3845
01> -6041
00> -3868
01> -6119
00> -3854
01> -6102
00> -3824
01> -6032
00> -3821
01> -5994
00> -3847
01> -6047
00> -3875
01> -6129
00> -3866
01> -6121
00> -3855
01> -6076
00> -3836
01> -6028
00> -3837
01> -6039
00> -3855
01> -6106
00> -3861
01> -6127
00> -3845
01> -6081
00> -3824
01> -6029
00> -3827
01> -6037
00> -3841
01> -6089
00> -3851
01> -6111
00> -3832
01> -6067
00> -3807
01> -6003
00> -3813
01> -6024
00> -3848
01> -6114
00> -3850
01> -6122
00> -3817
01> -6058
00> -3785
01> -5991
00> -3786
01> -5999
00> -3828
01> -6092
00> -3831
01> -6104
00> -3811
01> -6039
00> -3779
01> -5969
00> -3776
01> -5980
00> -3809
01> -6063
00> -3821
01> -6079
00> -3791
01> -6011
00> -3771
01> -5953
00> -3776
01> -5968
00> -3794
01> -6024
00> -3787
01> -6020
00> -3780
01> -5987
00> -3757
01> -5931
00> -3752
01> -5932
00> -3772
01> -6001
00> -3751
01> -5979
00> -3727
01> -5914
00> -3701
01> -5847
00> -3681
01> -5837
00> -3670
01> -5879
00> -3658
01> -5849
00> -3622
01> -5744
00> -3579
01> -5634
00> -3511
01> -5564
00> -3481
01> -5559
00> -3464
01> -5506
00> -3405
01> -5392
00> -3359
01> -5286
00> -3336
01> -5230
00> -3321
01> -5242
00> -3278
01> -5182
00> -3222
01> -5076
00> -3165
01> -4981
00> -3154
01> -4968
00> -3186
01> -5043
00> -3196
01> -5062
00> -3184
01> -5025
00> -3181
01> -4981
00> -3190
01> -4999
00> -3233
01> -5106
00> -3262
01> -5162
00> -3265
01> -5158
00> -3267
01> -5136
00> -3279
01> -5167
00> -3316
01> -5274
00> -3336
01> -5321
00> -3341
01> -5312
00> -3337
01> -5283
00> -3364
01> -5319
00> -3421
01> -5418
00> -3448
01> -5468
00> -3452
01> -5451
00> -3447
01> -5432
00> -3460
01> -5477
00> -3507
01> -5582
00> -3516
01> -5614
00> -3499
01> -5579
00> -3496
01> -5561
00> -3512
01> -5591
00> -3545
01> -5683
00> -3568
01> -5732
00> -3563
01> -5704
00> -3558
01> -5672
00> -3574
01> -5706
00> -3606
01> -5802
00> -3627
01> -5851
00> -3629
01> -5839
00> -3611
01> -5786
00> -3622
01> -5805
00> -3657
01> -5896
00> -3672
01> -5932
00> -3666
01> -5892
00> -3657
01> -5854
00> -3661
01> -5866
00> -3689
01> -5952
00> -3696
01> -5981
00> -3688
01> -5947
00> -3675
01> -5898
00> -3685
01> -5918
00> -3717
01> -6007
00> -3727
01> -6027
00> -3711
01> -5987
00> -3696
01> -5942
00> -3697
01> -5938
00> -3726
01> -6007
00> -3728
01> -6034
00> -3709
01> -5991
00> -3686
01> -5938
00> -3701
01> -5966
00> -3738
01> -6057
00> -3748
01> -6092
00> -3727
01> -6037
00> -3701
01> -5974
00> -3701
01> -5982
00> -3718
01> -6042
00> -3721
01> -6059
00> -3718
01> -6021
00> -3704
01> -5980
00> -3707
01> -5979
00> -3737
01> -6054
00> -3741
01> -6075
00> -3714
01> -6024
00> -3703
01> -5981
00> -3721
01> -6007
00> -3749
01> -6085
00> -3753
01> -6107
00> -3737
01> -6055
00> -3714
01> -5993
00> -3710
01> -5985
00> -3727
01> -6054
00> -3736
01> -6078
00> -3721
01> -6035
00> -3711
01> -5990
00> -3712
01> -5997
00> -3733
01> -6072
00> -3735
01> -6086
00> -3715
01> -6032
00> -3707
01> -5982
00> -3709
01> -5989
00> -3732
01> -6066
00> -3734
01> -6092
00> -3718
01> -6052
00> -3692
01> -5986
00> -3702
01> -5987
00> -3735
01> -6069
00> -3736
01> -6093
00> -3725
01> -6059
00> -3712
01> -6012
00> -3708
01> -6012
00> -3726
01> -6072
00> -3727
01> -6089
00> -3704
01> -6033
00> -3692
01> -5987
00> -3699
01> -5999
00> -3727
01> -6075
00> -3738
01> -6104
00> -3722
01> -6058
00> -3703
01> -6000
00> -3687
01> -5994
00> -3709
01> -6058
00> -3729
01> -6087
00> -3712
01> -6041
00> -3693
01> -5990
00> -3692
01> -5988
00> -3717
01> -6056
00> -3724
01> -6075
00> -3713
01> -6034
00> -3706
01> -5999
00> -3702
01> -5992
00> -3719
01> -6057
00> -3714
01> -6072
00> -3694
01> -6024
00> -3674
01> -5971
00> -3670
01> -5970
00> -3694
01> -6040
00> -3703
01> -6072
00> -3692
01> -6032
00> -3672
01> -5977
00> -3670
01> -5969
00> -3691
01> -6035
00> -3694
01> -6056
00> -3679
01> -6011
00> -3657
01> -5953
00> -3657
01> -5942
00> -3682
01> -6025
00> -3692
01> -6070
00> -3681
01> -6046
00> -3661
01> -6004
00> -3659
01> -6014
00> -3690
01> -6104
00> -3696
01> -6141
00> -3674
01> -6109
00> -3654
01> -6071
00> -3654
01> -6079
00> -3688
01> -6172
00> -3706
01> -6214
00> -3696
01> -6178
00> -3677
01> -6133
00> -3676
01> -6127
00> -3692
01> -6188
00> -3701
01> -6223
00> -3684
01> -6174
00> -3661
01> -6116
00> -3662
01> -6116
00> -3684
01> -6186
00> -3696
01> -6216
00> -3682
01> -6169
00> -3664
01> -6116
00> -3659
01> -6111
00> -3681
01> -6175
00> -3691
01> -6211
00> -3677
01> -6174
00> -3664
01> -6132
00> -3668
01> -6124
00> -3679
01> -6172
00> -3682
01> -6202
00> -3669
01> -6172
00> -3659
01> -6122
00> -3655
01> -6116
00> -3676
01> -6189
00> -3691
01> -6222
00> -3680
01> -6177
00> -3661
01> -6116
00> -3650
01> -6092
00> -3670
01> -6168
00> -3684
01> -6213
00> -3664
01> -6171
00> -3649
01> -6122
00> -3650
01> -6113
00> -3662
01> -6169
00> -3667
01> -6197
00> -3658
01> -6167
00> -3636
01> -6100
00> -3630
01> -6085
00> -3655
01> -6153
00> -3664
01> -6184
00> -3655
01> -6139
00> -3642
01> -6092
00> -3641
01> -6093
00> -3655
01> -6157
00> -3661
01> -6194
00> -3659
01> -6167
00> -3657
01> -6137
00> -3673
01> -6150
00> -3716
01> -6240
00> -3751
01> -6310
00> -3762
01> -6302
00> -3764
01> -6272
00> -3774
01> -6279
00> -3823
01> -6372
00> -3860
01> -6439
00> -3874
01> -6427
00> -3872
01> -6386
00> -3888
01> -6392
00> -3941
01> -6490
00> -3989
01> -6569
00> -3993
01> -6549
00> -3989
01> -6510
00> -4001
01> -6509
00> -4024
01> -6562
00> -4038
01> -6611
00> -4031
01> -6591

01> -6553
00> -4016
01> -6542
00> -4041
01> -6609
00> -4056
01> -6651
00> -4040
01> -6609
00> -4011
01> -6543
00> -4001
01> -6524
00> -4029
01> -6596
00> -4050
01> -6639
00> -4036
01> -6599
00> -4013
01> -6536
00> -4004
01> -6510
00> -4019
01> -6569
00> -4029
01> -6619
00> -4022
01> -6597
00> -4006
01> -6553
00> -4002
01> -6536
00> -4022
01> -6594
00> -4034
01> -6642
00> -4017
01> -6604
00> -3997
01> -6542
00> -3993
01> -6527
00> -4000
01> -6581
00> -4018
01> -6624
00> -4013
01> -6600
00> -3991
01> -6545
00> -3974
01> -6517
00> -3998
01> -6580
00> -4007
01> -6614
00> -3989
01> -6581
00> -3971
01> -6529
00> -3962
01> -6506
00> -3976
01> -6565
00> -3998
01> -6622
00> -3993
01> -6596
00> -3974
01> -6540
00> -3962
01> -6517
00> -3977
01> -6570
00> -3986
01> -6607
00> -3967
01> -6574
00> -3946
01> -6518
00> -3943
01> -6502
00> -3969
01> -6563
00> -3987
01> -6611
00> -3972
01> -6587
00> -3946
01> -6522
00> -3932
01> -6504
00> -3959
01> -6572
00> -3973
01> -6611
00> -3957
01> -6572
00> -3935
01> -6513
00> -3937
01> -6500
00> -3962
01> -6566
00> -3967
01> -6601
00> -3950
01> -6559
00> -3921
01> -6492
00> -3909
01> -6464
00> -3939
01> -6531
00> -3951
01> -6586
00> -3937
01> -6558
00> -3924
01> -6501
00> -3921
01> -6483
00> -3932
01> -6542
00> -3945
01> -6592
00> -3942
01> -6572
00> -3923
01> -6519
00> -3909
01> -6489
00> -3921
01> -6543
00> -3926
01> -6586
00> -3918
01> -6556
00> -3892
01> -6492
00> -3884
01> -6460
00> -3899
01> -6512
00> -3911
01> -6566
00> -3902
01> -6534
00> -3881
01> -6475
00> -3865
01> -6451
00> -3887
01> -6510
00> -3905
01> -6564
00> -3903
01> -6542
00> -3883
01> -6481
00> -3867
01> -6452
00> -3882
01> -6514
00> -3903
01> -6571
00> -3893
01> -6531
00> -3867
01> -6479
00> -3859
01> -6457
00> -3877
01> -6504
00> -3887
01> -6548
00> -3884
01> -6530
00> -3872
01> -6485
00> -3869
01> -6466
00> -3886
01> -6522
00> -3896
01> -6555
00> -3881
01> -6512
00> -3864
01> -6462
00> -3862
01> -6444
00> -3885
01> -6512
00> -3899
01> -6572
00> -3896
01> -6541
00> -3871
01> -6482
00> -3859
01> -6447
00> -3887
01> -6508
00> -3906
01> -6565
00> -3894
01> -6526
00> -3873
01> -6469
00> -3870
01> -6448
00> -3891
01> -6511
00> -3902
01> -6554
00> -3883
01> -6511
00> -3862
01> -6466
00> -3854
01> -6445
00> -3876
01> -6496
00> -3887
01> -6542
00> -3874
01> -6510
00> -3866
01> -6466
00> -3864
01> -6433
00> -3883
01> -6492
00> -3896
01> -6548
00> -3891
01> -6531
00> -3874
01> -6472
00> -3859
01> -6434
00> -3869
01> -6482
00> -3889
01> -6556
00> -3879
01> -6550
00> -3849
01> -6491
00> -3818
01> -6457
00> -3816
01> -6504
00> -3805
01> -6544
00> -3775
01> -6514
00> -3744
01> -6458
00> -3722
01> -6429
00> -3736
01> -6487
00> -3739
01> -6545
00> -3714
01> -6512
00> -3687
01> -6456
00> -3675
01> -6429
00> -3697
01> -6479
00> -3711
01> -6533
00> -3701
01> -6519
00> -3681
01> -6463
00> -3666
01> -6429
00> -3681
01> -6482
00> -3698
01> -6532
00> -3695
01> -6511
00> -3675
01> -6459
00> -3663
01> -6421
00> -3674
01> -6471
00> -3696
01> -6534
00> -3694
01> -6516
00> -3674
01> -6463
00> -3661
01> -6420
00> -3683
01> -6472
00> -3709
01> -6539
00> -3708
01> -6521
00> -3691
01> -6471
00> -3682
01> -6434
00> -3707
01> -6487
00> -3730
01> -6552
00> -3720
01> -6531
00> -3703
01> -6475
00> -3697
01> -6451
00> -3716
01> -6504
00> -3736
01> -6571
00> -3731
01> -6557
00> -3710
01> -6495
00> -3691
01> -6452
00> -3711
01> -6501
00> -3736
01> -6563
00> -3726
01> -6537
00> -3706
01> -6478
00> -3695
01> -6446
00> -3712
01> -6497
00> -3738
01> -6566
00> -3734
01> -6554
00> -3713
01> -6497
00> -3703
01> -6462
00> -3714
01> -6500
00> -3731
01> -6570
00> -3719
01> -6552
00> -3702
01> -6490
00> -3688
01> -6450
00> -3703
01> -6499
00> -3729
01> -6569
00> -3727
01> -6550
00> -3703
01> -6491
00> -3689
01> -6449
00> -3702
01> -6485
00> -3727
01> -6556
00> -3732
01> -6553
00> -3712
01> -6492
00> -3699
01> -6452
00> -3718
01> -6491
00> -3736
01> -6556
00> -3731
01> -6544
00> -3709
01> -6486
00> -3691
01> -6441
00> -3700
01> -6476
00> -3709
01> -6536
00> -3699
01> -6521
00> -3662
01> -6453
00> -3625
01> -6389
00> -3615
01> -6409
00> -3604
01> -6432
00> -3554
01> -6361
00> -3489
01> -6251
00> -3449
01> -6174
00> -3437
01> -6177
00> -3426
01> -6197
00> -3394
01> -6149
00> -3350
01> -6055
00> -3314
01> -5987
00> -3316
01> -6017
00> -3319
01> -6063
00> -3297
01> -6032
00> -3272
01> -5970
00> -3260
01> -5931
00> -3275
01> -5983
00> -3302
01> -6057
00> -3299
01> -6046
00> -3287
01> -6000
00> -3282
01> -5967
00> -3305
01> -6020
00> -3329
01> -6093
00> -3329
01> -6087
00> -3314
01> -6028
00> -3299
01> -5990
00> -3309
01> -6027
00> -3334
01> -6099
00> -3337
01> -6099
00> -3324
01> -6052
00> -3313
01> -6007
00> -3324
01> -6041
00> -3341
01> -6112
00> -3345
01> -6105
00> -3331
01> -6054
00> -3324
01> -6026
00> -3346
01> -6079
00> -3369
01> -6148
00> -3368
01> -6141
00> -3350
01> -6089
00> -3335
01> -6050
00> -3347
01> -6086
00> -3375
01> -6158
00> -3375
01> -6157
00> -3360
01> -6114
00> -3355
01> -6088
00> -3370
01> -6127
00> -3379
01> -6185
00> -3370
01> -6172
00> -3347
01> -6113
00> -3336
01> -6069
00> -3355
01> -6117
00> -3378
01> -6192
00> -3369
01> -6172
00> -3349
01> -6117
00> -3331
01> -6069
00> -3342
01> -6096
00> -3371
01> -6171
00> -3379
01> -6176
00> -3361
01> -6126
00> -3350
01> -6084
00> -3367
01> -6119
00> -3389
01> -6178
00> -3384
01> -6167
00> -3368
01> -6116
00> -3344
01> -6063
00> -3352
01> -6086
00> -3377
01> -6162
00> -3375
01> -6160
00> -3354
01> -6106
00> -3339
01> -6064
00> -3352
01> -6106
00> -3374
01> -6179
00> -3377
01> -6172
00> -3360
01> -6114
00> -3341
01> -6067
00> -3345
01> -6100
00> -3361
01> -6164
00> -3366
01> -6165
00> -3362
01> -6131
00> -3357
01> -6099
00> -3360
01> -6132
00> -3378
01> -6189
00> -3379
01> -6174
00> -3359
01> -6116
00> -3339
01> -6073
00> -3348
01> -6101
00> -3367
01> -6158
00> -3358
01> -6148
00> -3341
01> -6096
00> -3334
01> -6058
00> -3354
01> -6093
00> -3386
01> -6171
00> -3385
01> -6170
00> -3363
01> -6116
00> -3342
01> -6069
00> -3352
01> -6092
00> -3373
01> -6157
00> -3367
01> -6142
00> -3342
01> -6082
00> -3334
01> -6053
00> -3361
01> -6100
00> -3385
01> -6171
00> -3379
01> -6168
00> -3362
01> -6116
00> -3344
01> -6065
00> -3357
01> -6082
00> -3377
01> -6150
00> -3373
01> -6149
00> -3351
01> -6094
00> -3328
01> -6037
00> -3341
01> -6066
00> -3367
01> -6147
00> -3378
01> -6147
00> -3382
01> -6107
00> -3396
01> -6080
00> -3437
01> -6124
00> -3494
01> -6212
00> -3519
01> -6224
00> -3529
01> -6172
00> -3553
01> -6147
00> -3602
01> -6194
00> -3655
01> -6278
00> -3687
01> -6300
00> -3689
01> -6251
00> -3689
01> -6199
00> -3711
01> -6231
00> -3733
01> -6301
00> -3737
01> -6307
00> -3735
01> -6261
00> -3729
01> -6221
00> -3737
01> -6239
00> -3765
01> -6316
00> -3765
01> -6317
00> -3741
01> -6262
00> -3721
01> -6212
00> -3737
01> -6227
00> -3757
01> -6298
00> -3756
01> -6307
00> -3742
01> -6256
00> -3731
01> -6210
00> -3737
01> -6226
00> -3754
01> -6290
00> -3756
01> -6294
00> -3738
01> -6244
00> -3722
01> -6194
00> -3726
01> -6213
00> -3745
01> -6284
00> -3745
01> -6289
00> -3724
01> -6236
00> -3709
01> -6196
00> -3718
01> -6227
00> -3747
01> -6301
00> -3746
01> -6308
00> -3721
01> -6252
00> -3699
01> -6196
00> -3707
01> -6212
00> -3740
01> -6293
00> -3748
01> -6308
00> -3729
01> -6252
00> -3707
01> -6202
00> -3715
01> -6214
00> -3737
01> -6279
00> -3737
01> -6291
00> -3724
01> -6252
00> -3709
01> -6204
00> -3721
01> -6217
00> -3745
01> -6282
00> -3746
01> -6291
00> -3734
01> -6246
00> -3725
01> -6206
00> -3740
01> -6227
00> -3769
01> -6294
00> -3765
01> -6302
00> -3741
01> -6253
00> -3719
01> -6202
00> -3724
01> -6220
00> -3754
01> -6296
00> -3762
01> -6319
00> -3750
01> -6282
00> -3735
01> -6236
00> -3744
01> -6247
00> -3763
01> -6310
00> -3755
01> -6312
00> -3723
01> -6251
00> -3707
01> -6201
00> -3724
01> -6225
00> -3751
01> -6299
00> -3759
01> -6326
00> -3752
01> -6294
00> -3732
01> -6253
00> -3731
01> -6256
00> -3752
01> -6317
00> -3761
01> -6324
00> -3742
01> -6272
00> -3725
01> -6228
00> -3733
01> -6243
00> -3754
01> -6314
00> -3755
01> -6331
00> -3739
01> -6279
00> -3725
01> -6226
00> -3734
01> -6244
00> -3763
01> -6319
00> -3761
01> -6326
00> -3749
01> -6283
00> -3736
01> -6239
00> -3739
01> -6244
00> -3756
01> -6307
00> -3762
01> -6318
00> -3740
01> -6271
00> -3721
01> -6223
00> -3737
01> -6237
00> -3764
01> -6312
00> -3770
01> -6332
00> -3756
01> -6286
00> -3740
01> -6238
00> -3745
01> -6248
00> -3765
01> -6314
00> -3769
01> -6336
00> -3750
01> -6297
00> -3739
01> -6251
00> -3742
01> -6251
00> -3757
01> -6316
00> -3759
01> -6324
00> -3745
01> -6274
00> -3737
01> -6239
00> -3739
01> -6261
00> -3757
01> -6323
00> -3760
01> -6334
00> -3741
01> -6287
00> -3725
01> -6240
00> -3724
01> -6250
00> -3748
01> -6317
00> -3757
01> -6336
00> -3742
01> -6297
00> -3713
01> -6234
00> -3701
01> -6221
00> -3724
01> -6289
00> -3729
01> -6307
00> -3704
01> -6245
00> -3674
01> -6166
00> -3664
01> -6147
00> -3673
01> -6194
00> -3666
01> -6203
00> -3639
01> -6148
00> -3618
01> -6090
00> -3619
01> -6082
00> -3630
01> -6134
00> -3624
01> -6142
00> -3608
01> -6104
00> -3584
01> -6051
00> -3591
01> -6058
00> -3621
01> -6139
00> -3629
01> -6160
00> -3611
01> -6115
00> -3591
01> -6065
00> -3595
01> -6062
00> -3615
01> -6118
00> -3619
01> -6136
00> -3599
01> -6097
00> -3586
01> -6059
00> -3604
01> -6078
00> -3628
01> -6145
00> -3632
01> -6161
00> -3622
01> -6114
00> -3604
01> -6055
00> -3602
01> -6055
00> -3620
01> -6124
00> -3632
01> -6157
00> -3623
01> -6126
00> -3604
01> -6081
00> -3609
01> -6077
00> -3631
01> -6142
00> -3629
01> -6162
00> -3609
01> -6115
00> -3592
01> -6065
00> -3594
01> -6068
00> -3620
01> -6140
00> -3624
01> -6171
00> -3615
01> -6134
00> -3602
01> -6080
00> -3608
01> -6079
00> -3634
01> -6146
00> -3644
01> -6174
00> -3623
01> -6139
00> -3602
01> -6091
00> -3611
01> -6094
00> -3642
01> -6166
00> -3652
01> -6197
00> -3636
01> -6151
00> -3618
01> -6092
00> -3622
01> -6079
00> -3641
01> -6139
00> -3644
01> -6161
00> -3625
01> -6116
00> -3607
01> -6066
00> -3611
01> -6071
00> -3637
01> -6150
00> -3648
01> -6173

01> -6126
00> -3620
01> -6085
00> -3620
01> -6076
00> -3638
01> -6139
00> -3650
01> -6171
00> -3638
01> -6138
00> -3615
01> -6088
00> -3609
01> -6071
00> -3618
01> -6121
00> -3631
01> -6154
00> -3629
01> -6127
00> -3607
01> -6078
00> -3609
01> -6069
00> -3632
01> -6128
00> -3639
01> -6162
00> -3629
01> -6130
00> -3611
01> -6079
00> -3616
01> -6074
00> -3639
01> -6141
00> -3652
01> -6175
00> -3637
01> -6136
00> -3612
01> -6081
00> -3605
01> -6069
00> -3628
01> -6134
00> -3633
01> -6163
00> -3614
01> -6116
00> -3593
01> -6057
00> -3596
01> -6052
00> -3622
01> -6124
00> -3631
01> -6161
00> -3612
01> -6127
00> -3591
01> -6066
00> -3593
01> -6054
00> -3623
01> -6128
00> -3630
01> -6164
00> -3616
01> -6126
00> -3599
01> -6078
00> -3599
01> -6068
00> -3622
01> -6127
00> -3636
01> -6161
00> -3622
01> -6127
00> -3606
01> -6077
00> -3597
01> -6061
00> -3612
01> -6120
00> -3621
01> -6154
00> -3611
01> -6122
00> -3594
01> -6078
00> -3586
01> -6061
00> -3610
01> -6117
00> -3624
01> -6157
00> -3617
01> -6121
00> -3596
01> -6062
00> -3589
01> -6050
00> -3612
01> -6118
00> -3629
01> -6158
00> -3620
01> -6127
00> -3592
01> -6070
00> -3581
01> -6041
00> -3605
01> -6104
00> -3619
01> -6153
00> -3611
01> -6121
00> -3593
01> -6071
00> -3589
01> -6053
00> -3608
01> -6114
00> -3614
01> -6148
00> -3594
01> -6107
00> -3571
01> -6059
00> -3571
01> -6048
00> -3595
01> -6114
00> -3605
01> -6154
00> -3592
01> -6119
00> -3575
01> -6061
00> -3574
01> -6044
00> -3598
01> -6112
00> -3611
01> -6159
00> -3603
01> -6131
00> -3582
01> -6075
00> -3584
01> -6054
00> -3610
01> -6112
00> -3626
01> -6160
00> -3612
01> -6128
00> -3586
01> -6070
00> -3576
01> -6048
00> -3592
01> -6102
00> -3596
01> -6142
00> -3586
01> -6111
00> -3577
01> -6066
00> -3576
01> -6047
00> -3592
01> -6113
00> -3607
01> -6159
00> -3607
01> -6134
00> -3589
01> -6076
00> -3580
01> -6052
00> -3594
01> -6109
00> -3600
01> -6150
00> -3590
01> -6124
00> -3576
01> -6078
00> -3572
01> -6063
00> -3599
01> -6123
00> -3611
01> -6165
00> -3599
01> -6127
00> -3574
01> -6064
00> -3564
01> -6046
00> -3590
01> -6114
00> -3614
01> -6161
00> -3611
01> -6134
00> -3593
01> -6082
00> -3584
01> -6059
00> -3602
01> -6116
00> -3611
01> -6160
00> -3599
01> -6134
00> -3582
01> -6084
00> -3572
01> -6064
00> -3599
01> -6125
00> -3612
01> -6163
00> -3595
01> -6132
00> -3578
01> -6082
00> -3573
01> -6060
00> -3591
01> -6111
00> -3607
01> -6162
00> -3602
01> -6146
00> -3586
01> -6097
00> -3575
01> -6064
00> -3595
01> -6115
00> -3609
01> -6167
00> -3604
01> -6144
00> -3584
01> -6091
00> -3571
01> -6068
00> -3586
01> -6119
00> -3599
01> -6152
00> -3591
01> -6132
00> -3572
01> -6089
00> -3564
01> -6072
00> -3582
01> -6126
00> -3598
01> -6167
00> -3590
01> -6142
00> -3569
01> -6088
00> -3563
01> -6057
00> -3577
01> -6099
00> -3589
01> -6145
00> -3592
01> -6139
00> -3583
01> -6105
00> -3576
01> -6077
00> -3587
01> -6115
00> -3594
01> -6152
00> -3583
01> -6132
00> -3561
01> -6084
00> -3556
01> -6072
00> -3580
01> -6132
00> -3595
01> -6179
00> -3590
01> -6158
00> -3575
01> -6115
00> -3566
01> -6082
00> -3578
01> -6120
00> -3593
01> -6167
00> -3586
01> -6144
00> -3566
01> -6089
00> -3561
01> -6074
00> -3581
01> -6138
00> -3595
01> -6183
00> -3588
01> -6166
00> -3575
01> -6118
00> -3567
01> -6086
00> -3582
01> -6124
00> -3596
01> -6167
00> -3590
01> -6149
00> -3576
01> -6111
00> -3567
01> -6079
00> -3589
01> -6134
00> -3613
01> -6194
00> -3612
01> -6175
00> -3591
01> -6115
00> -3570
01> -6072
00> -3587
01> -6121
00> -3601
01> -6172
00> -3591
01> -6147
00> -3567
01> -6098
00> -3566
01> -6084
00> -3592
01> -6137
00> -3599
01> -6172
00> -3589
01> -6143
00> -3575
01> -6096
00> -3566
01> -6073
00> -3578
01> -6119
00> -3592
01> -6166
00> -3590
01> -6153
00> -3574
01> -6108
00> -3570
01> -6082
00> -3595
01> -6133
00> -3609
01> -6182
00> -3601
01> -6157
00> -3583
01> -6107
00> -3573
01> -6081
00> -3586
01> -6125
00> -3601
01> -6170
00> -3599
01> -6151
00> -3590
01> -6116
00> -3585
01> -6092
00> -3606
01> -6137
00> -3616
01> -6181
00> -3603
01> -6146
00> -3588
01> -6092
00> -3585
01> -6067
00> -3611
01> -6129
00> -3629
01> -6189
00> -3617
01> -6164
00> -3596
01> -6109
00> -3583
01> -6080
00> -3602
01> -6127
00> -3619
01> -6176
00> -3620
01> -6172
00> -3604
01> -6128
00> -3594
01> -6097
00> -3605
01> -6139
00> -3617
01> -6184
00> -3604
01> -6157
00> -3589
01> -6116
00> -3584
01> -6091
00> -3592
01> -6131
00> -3606
01> -6179
00> -3600
01> -6165
00> -3584
01> -6119
00> -3577
01> -6087
00> -3590
01> -6129
00> -3611
01> -6186
00> -3608
01> -6171
00> -3589
01> -6121
00> -3582
01> -6089
00> -3603
01> -6133
00> -3616
01> -6187
00> -3607
01> -6165
00> -3584
01> -6112
00> -3567
01> -6079
00> -3589
01> -6121
00> -3611
01> -6178
00> -3606
01> -6163
00> -3595
01> -6121
00> -3589
01> -6095
00> -3602
01> -6138
00> -3621
01> -6194
00> -3619
01> -6182
00> -3605
01> -6137
00> -3588
01> -6105
00> -3606
01> -6153
00> -3632
01> -6210
00> -3628
01> -6187
00> -3617
01> -6140
00> -3601
01> -6103
00> -3609
01> -6143
00> -3623
01> -6199
00> -3616
01> -6184
00> -3601
01> -6136
00> -3594
01> -6106
00> -3611
01> -6147
00> -3623
01> -6208
00> -3612
01> -6190
00> -3606
01> -6142
00> -3606
01> -6111
00> -3619
01> -6156
00> -3631
01> -6206
00> -3619
01> -6182
00> -3596
01> -6126
00> -3586
01> -6091
00> -3606
01> -6134
00> -3620
01> -6187
00> -3612
01> -6176
00> -3599
01> -6125
00> -3591
01> -6096
00> -3609
01> -6139
00> -3624
01> -6189
00> -3611
01> -6172
00> -3588
01> -6114
00> -3574
01> -6071
00> -3601
01> -6129
00> -3626
01> -6196
00> -3622
01> -6181
00> -3599
01> -6126
00> -3594
01> -6092
00> -3613
01> -6132
00> -3637
01> -6192
00> -3634
01> -6177
00> -3614
01> -6122
00> -3598
01> -6089
00> -3609
01> -6136
00> -3634
01> -6201
00> -3630
01> -6194
00> -3611
01> -6141
00> -3600
01> -6104
00> -3615
01> -6147
00> -3637
01> -6208
00> -3632
01> -6189
00> -3618
01> -6133
00> -3606
01> -6096
00> -3624
01> -6144
00> -3644
01> -6206
00> -3636
01> -6191
00> -3621
01> -6137
00> -3606
01> -6099
00> -3622
01> -6147
00> -3644
01> -6216
00> -3643
01> -6200
00> -3626
01> -6142
00> -3611
01> -6109
00> -3627
01> -6154
00> -3647
01> -6222
00> -3645
01> -6212
00> -3621
01> -6150
00> -3609
01> -6109
00> -3624
01> -6153
00> -3644
01> -6219
00> -3637
01> -6199
00> -3617
01> -6141
00> -3601
01> -6102
00> -3616
01> -6139
00> -3647
01> -6219
00> -3649
01> -6211
00> -3632
01> -6161
00> -3614
01> -6115
00> -3619
01> -6149
00> -3644
01> -6210
00> -3646
01> -6197
00> -3631
01> -6146
00> -3622
01> -6124
00> -3632
01> -6160
00> -3652
01> -6223
00> -3647
01> -6214
00> -3631
01> -6161
00> -3615
01> -6123
00> -3628
01> -6160
00> -3645
01> -6222
00> -3636
01> -6216
00> -3616
01> -6164
00> -3606
01> -6125
00> -3623
01> -6166
00> -3644
01> -6230
00> -3643
01> -6219
00> -3615
01> -6160
00> -3598
01> -6112
00> -3614
01> -6153
00> -3636
01> -6224
00> -3629
01> -6210
00> -3609
01> -6158
00> -3599
01> -6115
00> -3612
01> -6148
00> -3636
01> -6219
00> -3637
01> -6216
00> -3617
01> -6163
00> -3606
01> -6121
00> -3617
01> -6157
00> -3641
01> -6227
00> -3642
01> -6227
00> -3624
01> -6179
00> -3609
01> -6137
00> -3622
01> -6169
00> -3642
01> -6244
00> -3638
01> -6236
00> -3616
01> -6176
00> -3594
01> -6126
00> -3607
01> -6164
00> -3630
01> -6234
00> -3627
01> -6226
00> -3613
01> -6171
00> -3605
01> -6132
00> -3616
01> -6169
00> -3635
01> -6228
00> -3632
01> -6222
00> -3611
01> -6168
00> -3595
01> -6122
00> -3603
01> -6154
00> -3622
01> -6219
00> -3618
01> -6203
00> -3610
01> -6157
00> -3604
01> -6125
00> -3611
01> -6157
00> -3627
01> -6227
00> -3622
01> -6227
00> -3604
01> -6175
00> -3593
01> -6138
00> -3604
01> -6162
00> -3624
01> -6220
00> -3619
01> -6205
00> -3602
01> -6155
00> -3582
01> -6100
00> -3595
01> -6128
00> -3625
01> -6209
00> -3632
01> -6213
00> -3619
01> -6166
00> -3599
01> -6117
00> -3604
01> -6137
00> -3624
01> -6209
00> -3627
01> -6216
00> -3615
01> -6167
00> -3601
01> -6124
00> -3616
01> -6149
00> -3647
01> -6221
00> -3646
01> -6218
00> -3623
01> -6159
00> -3604
01> -6114
00> -3614
01> -6142
00> -3645
01> -6221
00> -3648
01> -6223
00> -3630
01> -6174
00> -3613
01> -6124
00> -3622
01> -6147
00> -3654
01> -6230
00> -3661
01> -6248
00> -3642
01> -6201
00> -3620
01> -6142
00> -3627
01> -6160
00> -3651
01> -6221
00> -3641
01> -6217
00> -3620
01> -6159
00> -3608
01> -6116
00> -3621
01> -6145
00> -3641
01> -6214
00> -3635
01> -6209
00> -3609
01> -6154
00> -3594
01> -6112
00> -3607
01> -6142
00> -3637
01> -6219
00> -3631
01> -6217
00> -3611
01> -6154
00> -3599
01> -6109
00> -3607
01> -6133
00> -3627
01> -6208
00> -3631
01> -6220
00> -3612
01> -6169
00> -3592
01> -6112
00> -3596
01> -6126
00> -3617
01> -6193
00> -3622
01> -6207
00> -3610
01> -6169
00> -3594
01> -6122
00> -3607
01> -6152
00> -3632
01> -6221
00> -3629
01> -6217
00> -3615
01> -6171
00> -3602
01> -6131
00> -3607
01> -6147
00> -3627
01> -6214
00> -3627
01> -6211
00> -3609
01> -6156
00> -3596
01> -6109
00> -3607
01> -6142
00> -3631
01> -6216
00> -3626
01> -6213
00> -3609
01> -6159
00> -3591
01> -6111
00> -3597
01> -6128
00> -3624
01> -6205
00> -3631
01> -6219
00> -3619
01> -6169
00> -3604
01> -6120
00> -3607
01> -6136
00> -3632
01> -6206
00> -3639
01> -6216
00> -3620
01> -6171
00> -3599
01> -6116
00> -3608
01> -6129
00> -3636
01> -6206
00> -3632
01> -6210
00> -3607
01> -6159
00> -3584
01> -6106
00> -3589
01> -6112
00> -3612
01> -6179
00> -3621
01> -6202
00> -3612
01> -6172
00> -3596
01> -6123
00> -3599
01> -6121
00> -3620
01> -6189
00> -3624
01> -6199
00> -3606
01> -6146
00> -3590
01> -6096
00> -3602
01> -6121
00> -3629
01> -6197
00> -3631
01> -6211
00> -3615
01> -6158
00> -3598
01> -6103
00> -3608
01> -6116
00> -3633
01> -6187
00> -3631
01> -6203
00> -3609
01> -6150
00> -3595
01> -6102
00> -3606
01> -6117
00> -3630
01> -6189
00> -3629
01> -6205
00> -3628
01> -6174
00> -3626
01> -6136
00> -3633
01> -6148
00> -3650
01> -6209
00> -3645
01> -6202
00> -3617
01> -6147
00> -3592
01> -6096
00> -3604
01> -6112
00> -3628
01> -6184
00> -3630
01> -6199
00> -3617
01> -6150
00> -3605
01> -6104
00> -3615
01> -6128
00> -3642
01> -6209
00> -3646
01> -6227
00> -3629
01> -6179
00> -3610
01> -6124
00> -3604
01> -6127
00> -3622
01> -6197
00> -3626
01> -6215
00> -3612
01> -6171
00> -3594
01> -6125
00> -3603
01> -6131
00> -3622
01> -6197
00> -3630
01> -6215
00> -3625
01> -6171
00> -3619
01> -6121
00> -3619
01> -6131
00> -3636
01> -6196
00> -3636
01> -6209
00> -3625
01> -6161
00> -3610
01> -6114
00> -3620
01> -6129
00> -3648
01> -6206
00> -3659
01> -6231
00> -3642
01> -6177
00> -3619
01> -6114
00> -3627
01> -6126
00> -3650
01> -6197
00> -3652
01> -6210
00> -3637
01> -6167
00> -3617
01> -6117
00> -3621
01> -6120
00> -3647
01> -6192
00> -3659
01> -6221
00> -3649
01> -6184
00> -3629
01> -6134
00> -3631
01> -6133
00> -3661
01> -6201
00> -3662
01> -6224
00> -3644
01> -6174
00> -3619
01> -6113
00> -3629
01> -6131
00> -3659
01> -6213
00> -3665
01> -6231
00> -3652
01> -6196
00> -3630
01> -6144
00> -3621
01> -6146
00> -3641
01> -6212
00> -3647
01> -6234
00> -3635
01> -6189
00> -3617
01> -6145
00> -3620
01> -6150
00> -3640
01> -6217
00> -3648
01> -6244
00> -3638
01> -6211
00> -3616
01> -6161
00> -3612
01> -6157
00> -3636
01> -6226
00> -3637
01> -6244
00> -3628
01> -6197
00> -3616
01> -6153
00> -3614
01> -6154
00> -3634
01> -6215
00> -3644
01> -6240
00> -3627
01> -6199
00> -3610
01> -6152
00> -3615
01> -6156
00> -3644
01> -6231
00> -3651
01> -6245
00> -3632
01> -6185
00> -3611
01> -6131
00> -3610
01> -6136
00> -3639
01> -6217
00> -3653
01> -6255
00> -3643
01> -6222
00> -3621
01> -6167
00> -3624
01> -6160
00> -3651
01> -6226
00> -3654
01> -6247
00> -3636
01> -6205
00> -3617
01> -6148
00> -3614
01> -6147
00> -3644
01> -6222
00> -3652
01> -6250
00> -3644
01> -6220
00> -3626
01> -6179
00> -3627
01> -6173
00> -3649
01> -6239
00> -3659
01> -6268
00> -3645
01> -6232
00> -3621
01> -6176
00> -3621
01> -6158
00> -3642
01> -6221
00> -3646
01> -6264
00> -3641
01> -6240
00> -3630
01> -6188
00> -3632
01> -6176
00> -3659
01> -6244
00> -3669
01> -6272
00> -3656
01> -6229
00> -3636
01> -6183
00> -3636
01> -6176
00> -3662
01> -6237
00> -3659
01> -6265
00> -3648
01> -6229
00> -3630
01> -6175
00> -3624
01> -6163
00> -3652
01> -6232
00> -3664
01> -6262
00> -3646
01> -6224
00> -3632
01> -6176
00> -3627
01> -6172
00> -3651
01> -6241
00> -3666
01> -6274
00> -3651
01> -6240
00> -3641
01> -6199
00> -3644
01> -6188
00> -3664
01> -6244
00> -3675
01> -6274
00> -3669
01> -6247
00> -3652
01> -6206
00> -3646
01> -6189
00> -3657
01> -6242
00> -3664
01> -6266
00> -3655
01> -6232
00> -3641
01> -6197
00> -3642
01> -6191
00> -3654
01> -6243
00> -3660
01> -6266
00> -3651
01> -6228
00> -3636
01> -6182
00> -3635
01> -6177
00> -3658
01> -6242
00> -3667
01> -6273
00> -3644
01> -6225
00> -3622
01> -6163
00> -3629
01> -6165
00> -3659
01> -6246
00> -3672
01> -6281
00> -3659
01> -6241
00> -3637
01> -6190
00> -3632
01> -6181
00> -3646
01> -6236
00> -3653
01> -6268
00> -3645
01> -6236
00> -3626
01> -6177
00> -3621
01> -6169
00> -3644
01> -6239
00> -3657
01> -6279
00> -3647
01> -6249
00> -3635
01> -6201
00> -3631
01> -6191
00> -3652
01> -6252
00> -3662
01> -6276
00> -3643
01> -6237
00> -3623
01> -6189
00> -3626
01> -6189
00> -3654
01> -6259
00> -3666
01> -6301
00> -3651
01> -6262
00> -3629
01> -6200
00> -3624
01> -6186
00> -3651
01> -6254
00> -3661
01> -6293
00> -3656
01> -6265
00> -3637
01> -6207
00> -3626
01> -6188
00> -3647
01> -6252
00> -3649
01> -6279
00> -3626
01> -6231
00> -3604
01> -6182
00> -3609
01> -6185
00> -3639
01> -6256
00> -3650
01> -6300
00> -3637
01> -6260
00> -3618
01> -6201
00> -3612
01> -6178
00> -3630
01> -6243
00> -3642
01> -6279
00> -3627
01> -6246
00> -3608
01> -6199
00> -3606
01> -6188
00> -3632
01> -6256
00> -3639
01> -6301
00> -3615
01> -6263
00> -3581
01> -6199
00> -3560
01> -6169
00> -3569
01> -6224
00> -3576
01> -6264
00> -3552
01> -6233
00> -3523
01> -6176
00> -3515
01> -6159
00> -3529
01> -6217
00> -3537
01> -6253
00> -3527
01> -6229
00> -3515
01> -6187
00> -3510
01> -6170
00> -3527
01> -6227
00> -3540
01> -6262
00> -3534
01> -6235
00> -3520
01> -6187
00> -3507
01> -6164
00> -3522
01> -6213
00> -3536
01> -6260
00> -3527
01> -6233
00> -3514
01> -6174
00> -3509
01> -6156
00> -3529
01> -6223
00> -3549
01> -6274
00> -3544
01> -6240
00> -3522
01> -6183
00> -3518
01> -6161
00> -3541
01> -6226
00> -3555
01> -6267
00> -3537
01> -6227
00> -3512
01> -6174
00> -3509
01> -6157
00> -3539
01> -6226
00> -3557
01> -6276
00> -3541
01> -6245
00> -3525
01> -6189
00> -3519
01> -6167
00> -3539
01> -6223
00> -3549
01> -6270
00> -3536
01> -6234
00> -3519
01> -6179
00> -3519
01> -6164
00> -3542
01> -6226
00> -3554
01> -6273
00> -3548
01> -6247
00> -3531
01> -6199
00> -3522
01> -6180
00> -3541
01> -6234
00> -3554
01> -6276
00> -3536
01> -6244
00> -3517
01> -6185
00> -3509
01> -6163
00> -3531
01> -6219
00> -3546
01> -6269
00> -3537
01> -6256
00> -3514
01> -6202
00> -3497
01> -6171
00> -3519
01> -6232
00> -3533
01> -6289
00> -3527
01> -6255
00> -3512
01> -6191
00> -3506
01> -6165
00> -3530
01> -6223
00> -3540
01> -6271
00> -3533
01> -6251
00> -3515
01> -6207
00> -3510
01> -6184
00> -3527
01> -6232
00> -3541
01> -6281
00> -3537
01> -6257
00> -3522
01> -6209
00> -3512
01> -6186
00> -3531
01> -6239
00> -3547
01> -6286
00> -3537
01> -6255
00> -3523
01> -6202
00> -3521
01> -6185
00> -3542
01> -6243
00> -3552
01> -6294
00> -3548
01> -6268
00> -3535
01> -6222
00> -3522
01> -6194
00> -3540
01> -6242
00> -3558
01> -6290
00> -3552
01> -6264
00> -3533
01> -6207
00> -3520
01> -6182
00> -3534
01> -6222
00> -3542
01> -6266
00> -3535
01> -6243
00> -3518
01> -6192
00> -3505
01> -6160
00> -3514
01> -6205
00> -3522
01> -6242
00> -3509
01> -6204
00> -3485
01> -6141
00> -3485
01> -6112
00> -3509
01> -6163
00> -3521
01> -6216
00> -3511
01> -6187
00> -3489
01> -6131
00> -3476
01> -6099
00> -3498
01> -6159
00> -3521
01> -6221
00> -3514
01> -6207
00> -3491
01> -6151
00> -3484
01> -6117
00> -3509
01> -6169
00> -3529
01> -6222
00> -3517
01> -6196
00> -3499
01> -6141
00> -3491
01> -6106
00> -3507
01> -6159
00> -3522
01> -6216
00> -3509
01> -6191
00> -3491
01> -6140
00> -3480
01> -6111
00> -3493
01> -6161
00> -3509
01> -6208
00> -3505
01> -6188
00> -3493
01> -6141
00> -3489
01> -6116
00> -3509
01> -6165
00> -3528
01> -6221
00> -3521
01> -6209
00> -3496
01> -6159
00> -3476
01> -6128
00> -3498
01> -6183
00> -3519
01> -6237
00> -3511
01> -6211
00> -3491
01> -6152
00> -3480
01> -6115
00> -3500
01> -6176
00> -3519
01> -6243
00> -3512
01> -6219
00> -3492
01> -6162
00> -3482
01> -6129
00> -3494
01> -6164
00> -3509
01> -6226
00> -3510
01> -6214
00> -3497
01> -6166
00> -3491
01> -6139
00> -3501
01> -6191
00> -3512
01> -6238
00> -3499
01> -6208
00> -3482
01> -6156
00> -3488
01> -6135
00> -3511
01> -6191
00> -3530
01> -6254
00> -3514
01> -6219
00> -3490
01> -6152
00> -3480
01> -6123
00> -3497
01> -6176
00> -3517
01> -6235
00> -3514
01> -6226
00> -3491
01> -6171
00> -3482
01> -6137
00> -3496
01> -6182
00> -3511
01> -6238
00> -3504
01> -6220
00> -3488
01> -6172
00> -3481
01> -6142
00> -3507
01> -6194
00> -3526
01> -6254
00> -3521
01> -6236
00> -3499
01> -6182
00> -3481
01> -6142
00> -3498
01> -6192
00> -3517
01> -6250
00> -3509
01> -6227
00> -3486
01> -6168
00> -3477
01> -6127
00> -3489
01> -6167
00> -3511
01> -6232
00> -3506
01> -6219
00> -3489
01> -6169
00> -3470
01> -6131
00> -3487
01> -6170
00> -3509
01> -6222
00> -3499
01> -6197
00> -3481
01> -6142
00> -3464
01> -6116
00> -3476
01> -6161
00> -3498
01> -6224
00> -3498
01> -6216
00> -3484
01> -6167
00> -3471
01> -6129
00> -3494
01> -6187
00> -3513
01> -6247
00> -3503
01> -6225
00> -3487
01> -6173
00> -3490
01> -6144
00> -3533
01> -6204
00> -3572
01> -6287
00> -3579
01> -6281
00> -3566
01> -6236
00> -3561
01> -6202
00> -3590
01> -6248
00> -3624
01> -6324
00> -3622
01> -6312
00> -3608
01> -6263
00> -3601
01> -6227
00> -3627
01> -6267
00> -3647
01> -6331
00> -3639
01> -6321
00> -3621
01> -6259
00> -3604
01> -6220
00> -3623
01> -6267
00> -3640
01> -6324
00> -3630
01> -6298
00> -3607
01> -6242
00> -3592
01> -6203
00> -3611
01> -6255
00> -3632
01> -6326
00> -3627
01> -6307
00> -3603
01> -6237
00> -3584
01> -6187
00> -3604
01> -6234
00> -3630
01> -6309
00> -3629
01> -6302
00> -3614
01> -6251
00> -3599
01> -6209
00> -3609
01> -6245
00> -3632
01> -6314
00> -3637
01> -6314
00> -3622
01> -6262
00> -3603
01> -6216
00> -3612
01> -6242
00> -3622
01> -6287
00> -3613
01> -6278
00> -3595
01> -6236
00> -3579
01> -6194
00> -3597
01> -6238
00> -3622
01> -6311
00> -3619
01> -6302
00> -3605
01> -6249
00> -3594
01> -6213
00> -3603
01> -6243
00> -3616
01> -6291
00> -3614
01> -6278
00> -3604
01> -6238
00> -3594
01> -6199
00> -3607
01> -6234
00> -3633
01> -6308
00> -3628
01> -6294
00> -3605
01> -6232
00> -3589
01> -6201
00> -3609
01> -6257
00> -3631
01> -6341
00> -3622
01> -6342
00> -3597
01> -6304
00> -3578
01> -6269
00> -3584
01> -6307
00> -3596
01> -6387
00> -3589
01> -6400
00> -3559
01> -6359
00> -3543
01> -6330
00> -3557
01> -6381
00> -3580
01> -6471
00> -3584
01> -6492
00> -3579
01> -6454
00> -3569
01> -6415
00> -3582
01> -6452
00> -3601
01> -6527
00> -3596
01> -6518
00> -3576
01> -6466
00> -3561
01> -6424
00> -3580
01> -6464
00> -3600
01> -6532
00> -3591
01> -6516
00> -3577
01> -6465
00> -3561
01> -6417
00> -3574
01> -6449
00> -3593
01> -6511
00> -3589
01> -6499
00> -3578
01> -6453
00> -3564
01> -6414
00> -3573
01> -6449
00> -3591
01> -6518
00> -3594
01> -6517
00> -3582
01> -6473
00> -3567
01> -6430
00> -3577
01> -6454
00> -3598
01> -6522
00> -3603
01> -6532
00> -3589
01> -6482
00> -3569
01> -6437
00> -3589
01> -6477
00> -3610
01> -6551
00> -3608
01> -6543
00> -3585
01> -6489
00> -3563
01> -6439
00> -3573
01> -6462
00> -3592
01> -6532
00> -3592
01> -6532
00> -3579
01> -6489
00> -3574
01> -6461
00> -3584
01> -6486
00> -3602
01> -6541
00> -3601
01> -6532
00> -3579
01> -6476
00> -3557
01> -6433
00> -3574
01> -6465
00> -3599
01> -6535
00> -3601
01> -6535
00> -3583
01> -6487
00> -3568
01> -6440
00> -3583
01> -6465
00> -3606
01> -6542
00> -3610
01> -6552
00> -3596
01> -6500
00> -3579
01> -6454
00> -3585
01> -6470
00> -3607
01> -6541
00> -3607
01> -6549
00> -3588
01> -6494
00> -3574
01> -6447
00> -3582
01> -6468

01> -6534
00> -3604
01> -6539
00> -3592
01> -6492
00> -3579
01> -6447
00> -3586
01> -6471
00> -3604
01> -6539
00> -3601
01> -6546
00> -3591
01> -6502
00> -3578
01> -6459
00> -3585
01> -6476
00> -3607
01> -6539
00> -3604
01> -6549
00> -3587
01> -6503
00> -3579
01> -6460
00> -3591
01> -6483
00> -3609
01> -6556
00> -3612
01> -6556
00> -3596
01> -6502
00> -3582
01> -6459
00> -3591
01> -6483
00> -3615
01> -6556
00> -3622
01> -6564
00> -3604
01> -6518
00> -3588
01> -6470
00> -3594
01> -6490
00> -3614
01> -6566
00> -3621
01> -6575
00> -3622
01> -6527
00> -3614
01> -6469
00> -3629
01> -6477
00> -3658
01> -6536
00> -3659
01> -6526
00> -3644
01> -6456
00> -3630
01> -6394
00> -3641
01> -6391
00> -3662
01> -6435
00> -3659
01> -6419
00> -3641
01> -6351
00> -3623
01> -6288
00> -3624
01> -6287
00> -3639
01> -6341
00> -3637
01> -6327
00> -3623
01> -6277
00> -3605
01> -6227
00> -3611
01> -6242
00> -3627
01> -6306
00> -3624
01> -6305
00> -3611
01> -6254
00> -3594
01> -6209
00> -3602
01> -6235
00> -3639
01> -6319
00> -3641
01> -6323
00> -3622
01> -6273
00> -3605
01> -6236
00> -3611
01> -6261
00> -3636
01> -6331
00> -3639
01> -6337
00> -3619
01> -6287
00> -3607
01> -6248
00> -3621
01> -6267
00> -3649
01> -6344
00> -3654
01> -6351
00> -3636
01> -6293
00> -3623
01> -6252
00> -3636
01> -6288
00> -3657
01> -6368
00> -3665
01> -6378
00> -3655
01> -6327
00> -3634
01> -6270
00> -3638
01> -6277
00> -3667
01> -6356
00> -3678
01> -6381
00> -3667
01> -6341
00> -3647
01> -6293
00> -3651
01> -6307
00> -3669
01> -6372
00> -3669
01> -6383
00> -3653
01> -6335
00> -3635
01> -6289
00> -3646
01> -6311
00> -3669
01> -6381
00> -3677
01> -6397
00> -3666
01> -6356
00> -3647
01> -6304
00> -3657
01> -6321
00> -3682
01> -6388
00> -3681
01> -6400
00> -3674
01> -6364
00> -3661
01> -6322
00> -3669
01> -6332
00> -3684
01> -6389
00> -3681
01> -6399
00> -3666
01> -6354
00> -3646
01> -6299
00> -3651
01> -6314
00> -3677
01> -6392
00> -3686
01> -6408
00> -3663
01> -6357
00> -3647
01> -6302
00> -3653
01> -6316
00> -3667
01> -6386
00> -3671
01> -6406
00> -3658
01> -6353
00> -3647
01> -6296
00> -3652
01> -6306
00> -3672
01> -6383
00> -3676
01> -6402
00> -3652
01> -6358
00> -3637
01> -6316
00> -3656
01> -6334
00> -3684
01> -6407
00> -3682
01> -6411
00> -3661
01> -6362
00> -3656
01> -6332
00> -3664
01> -6340
00> -3679
01> -6404
00> -3681
01> -6419
00> -3667
01> -6369
00> -3649
01> -6315
00> -3657
01> -6321
00> -3679
01> -6399
00> -3680
01> -6408
00> -3661
01> -6351
00> -3644
01> -6292
00> -3644
01> -6277
00> -3657
01> -6324
00> -3648
01> -6315
00> -3632
01> -6259
00> -3612
01> -6196
00> -3612
01> -6195
00> -3635
01> -6264
00> -3639
01> -6284
00> -3618
01> -6236
00> -3611
01> -6192
00> -3617
01> -6209
00> -3640
01> -6284
00> -3644
01> -6297
00> -3628
01> -6244
00> -3609
01> -6191
00> -3611
01> -6195
00> -3632
01> -6265
00> -3636
01> -6296
00> -3630
01> -6272
00> -3622
01> -6241
00> -3628
01> -6242
00> -3652
01> -6310
00> -3654
01> -6323
00> -3639
01> -6281
00> -3627
01> -6237
00> -3634
01> -6247
00> -3652
01> -6321
00> -3652
01> -6337
00> -3640
01> -6293
00> -3619
01> -6234
00> -3617
01> -6226
00> -3644
01> -6289
00> -3661
01> -6321
00> -3652
01> -6290
00> -3636
01> -6244
00> -3647
01> -6258
00> -3669
01> -6332
00> -3674
01> -6345
00> -3655
01> -6301
00> -3641
01> -6251
00> -3645
01> -6262
00> -3671
01> -6340
00> -3678
01> -6365
00> -3661
01> -6320
00> -3637
01> -6252
00> -3634
01> -6249
00> -3661
01> -6324
00> -3666
01> -6354
00> -3657
01> -6311
00> -3639
01> -6262
00> -3639
01> -6256
00> -3661
01> -6327
00> -3671
01> -6351
00> -3657
01> -6312
00> -3637
01> -6266
00> -3642
01> -6265
00> -3667
01> -6331
00> -3674
01> -6361
00> -3659
01> -6316
00> -3636
01> -6261
00> -3639
01> -6266
00> -3670
01> -6339
00> -3674
01> -6361
00> -3667
01> -6326
00> -3654
01> -6280
00> -3651
01> -6273
00> -3670
01> -6336
00> -3671
01> -6364
00> -3662
01> -6327
00> -3651
01> -6274
00> -3647
01> -6260
00> -3669
01> -6331
00> -3679
01> -6366
00> -3662
01> -6325
00> -3639
01> -6273
00> -3642
01> -6276
00> -3665
01> -6341
00> -3672
01> -6366
00> -3658
01> -6332
00> -3637
01> -6284
00> -3637
01> -6272
00> -3655
01> -6334
00> -3664
01> -6363
00> -3649
01> -6324
00> -3634
01> -6272
00> -3640
01> -6267
00> -3667
01> -6337
00> -3679
01> -6371
00> -3666
01> -6334
00> -3637
01> -6277
00> -3634
01> -6264
00> -3652
01> -6327
00> -3663
01> -6365
00> -3648
01> -6322
00> -3624
01> -6263
00> -3629
01> -6267
00> -3658
01> -6335
00> -3661
01> -6352
00> -3636
01> -6297
00> -3608
01> -6222
00> -3607
01> -6201
00> -3635
01> -6259
00> -3634
01> -6275
00> -3607
01> -6215
00> -3583
01> -6155
00> -3587
01> -6151
00> -3617
01> -6224
00> -3621
01> -6249
00> -3607
01> -6206
00> -3594
01> -6166
00> -3607
01> -6176
00> -3637
01> -6253
00> -3644
01> -6289
00> -3630
01> -6245
00> -3605
01> -6184
00> -3594
01> -6163
00> -3622
01> -6237
00> -3641
01> -6279
00> -3629
01> -6242
00> -3609
01> -6186
00> -3609
01> -6187
00> -3637
01> -6267
00> -3639
01> -6297
00> -3614
01> -6247
00> -3602
01> -6199
00> -3607
01> -6201
00> -3636
01> -6289
00> -3652
01> -6326
00> -3636
01> -6269
00> -3616
01> -6211
00> -3610
01> -6199
00> -3633
01> -6272
00> -3644
01> -6306
00> -3632
01> -6263
00> -3615
01> -6211
00> -3617
01> -6212
00> -3650
01> -6290
00> -3662
01> -6326
00> -3642
01> -6286
00> -3622
01> -6224
00> -3623
01> -6213
00> -3657
01> -6298
00> -3665
01> -6334
00> -3655
01> -6287
00> -3630
01> -6217
00> -3622
01> -6200
00> -3650
01> -6283
00> -3659
01> -6326
00> -3643
01> -6281
00> -3621
01> -6221
00> -3622
01> -6204
00> -3647
01> -6281
00> -3664
01> -6324
00> -3653
01> -6288
00> -3629
01> -6227
00> -3629
01> -6223
00> -3658
01> -6301
00> -3670
01> -6335
00> -3651
01> -6289
00> -3626
01> -6225
00> -3624
01> -6204
00> -3657
01> -6291
00> -3681
01> -6343
00> -3669
01> -6302
00> -3637
01> -6231
00> -3626
01> -6201
00> -3653
01> -6277
00> -3663
01> -6322
00> -3655
01> -6279
00> -3635
01> -6224
00> -3626
01> -6207
00> -3654
01> -6287
00> -3666
01> -6329
00> -3647
01> -6279
00> -3627
01> -6217
00> -3624
01> -6206
00> -3659
01> -6292
00> -3674
01> -6339
00> -3656
01> -6293
00> -3632
01> -6229
00> -3626
01> -6217
00> -3654
01> -6298
00> -3666
01> -6343
00> -3649
01> -6293
00> -3627
01> -6220
00> -3622
01> -6199
00> -3652
01> -6287
00> -3670
01> -6340
00> -3647
01> -6283
00> -3617
01> -6209
00> -3609
01> -6191
00> -3640
01> -6285
00> -3664
01> -6343
00> -3652
01> -6297
00> -3621
01> -6221
00> -3609
01> -6191
00> -3636
01> -6277
00> -3655
01> -6337
00> -3649
01> -6303
00> -3629
01> -6234
00> -3626
01> -6214
00> -3654
01> -6302
00> -3666
01> -6356
00> -3646
01> -6295
00> -3621
01> -6221
00> -3611
01> -6201
00> -3639
01> -6296
00> -3658
01> -6361
00> -3647
01> -6319
00> -3616
01> -6236
00> -3608
01> -6199
00> -3646
01> -6293
00> -3664
01> -6352
00> -3644
01> -6303
00> -3614
01> -6230
00> -3604
01> -6197
00> -3639
01> -6286
00> -3661
01> -6354
00> -3642
01> -6301
00> -3611
01> -6220
00> -3601
01> -6191
00> -3632
01> -6281
00> -3651
01> -6344
00> -3630
01> -6292
00> -3600
01> -6209
00> -3596
01> -6182
00> -3624
01> -6273
00> -3637
01> -6339
00> -3621
01> -6289
00> -3600
01> -6218
00> -3596
01> -6195
00> -3634
01> -6288
00> -3657
01> -6357
00> -3638
01> -6309
00> -3604
01> -6217
00> -3595
01> -6191
00> -3638
01> -6296
00> -3662
01> -6371
00> -3646
01> -6327
00> -3618
01> -6247
00> -3601
01> -6211
00> -3630
01> -6294
00> -3650
01> -6352
00> -3632
01> -6305
00> -3602
01> -6236
00> -3597
01> -6208
00> -3635
01> -6296
00> -3657
01> -6357
00> -3631
01> -6298
00> -3593
01> -6218
00> -3585
01> -6186
00> -3610
01> -6264
00> -3625
01> -6326
00> -3602
01> -6267
00> -3571
01> -6178
00> -3557
01> -6131
00> -3584
01> -6199
00> -3601
01> -6257
00> -3583
01> -6206
00> -3547
01> -6120
00> -3527
01> -6082
00> -3557
01> -6167
00> -3580
01> -6241
00> -3563
01> -6204
00> -3536
01> -6135
00> -3524
01> -6105
00> -3546
01> -6184
00> -3566
01> -6249
00> -3552
01> -6212
00> -3526
01> -6137
00> -3516
01> -6099
00> -3546
01> -6182
00> -3569
01> -6260
00> -3561
01> -6224
00> -3538
01> -6149
00> -3533
01> -6109
00> -3564
01> -6191
00> -3589
01> -6265
00> -3572
01> -6224
00> -3541
01> -6142
00> -3526
01> -6094
00> -3564
01> -6181
00> -3589
01> -6269
00> -3581
01> -6232
00> -3557
01> -6164
00> -3548
01> -6128
00> -3579
01> -6210
00> -3601
01> -6289
00> -3591
01> -6261
00> -3571
01> -6182
00> -3557
01> -6136
00> -3579
01> -6213
00> -3602
01> -6289
00> -3592
01> -6256
00> -3567
01> -6174
00> -3552
01> -6122
00> -3581
01> -6209
00> -3607
01> -6292
00> -3598
01> -6265
00> -3574
01> -6189
00> -3552
01> -6136
00> -3572
01> -6209
00> -3611
01> -6310
00> -3606
01> -6287
00> -3572
01> -6198
00> -3554
01> -6149
00> -3586
01> -6224
00> -3609
01> -6301
00> -3594
01> -6267
00> -3564
01> -6181
00> -3543
01> -6131
00> -3575
01> -6209
00> -3602
01> -6305
00> -3587
01> -6276
00> -3557
01> -6191
00> -3541
01> -6137
00> -3576
01> -6221
00> -3606
01> -6313
00> -3589
01> -6280
00> -3566
01> -6204
00> -3546
01> -6148
00> -3571
01> -6220
00> -3599
01> -6306
00> -3591
01> -6273
00> -3559
01> -6186
00> -3540
01> -6133
00> -3574
01> -6212
00> -3604
01> -6309
00> -3589
01> -6281
00> -3562
01> -6202
00> -3552
01> -6160
00> -3576
01> -6236
00> -3596
01> -6324
00> -3585
01> -6282
00> -3555
01> -6197
00> -3532
01> -6147
00> -3559
01> -6227
00> -3591
01> -6326
00> -3582
01> -6296
00> -3556
01> -6206
00> -3542
01> -6156
00> -3572
01> -6233
00> -3601
01> -6326
00> -3587
01> -6287
00> -3562
01> -6207
00> -3548
01> -6162
00> -3574
01> -6235
00> -3600
01> -6326
00> -3599
01> -6300
00> -3582
01> -6222
00> -3562
01> -6166
00> -3584
01> -6234
00> -3611
01> -6326
00> -3596
01> -6291
00> -3573
01> -6217
00> -3562
01> -6166
00> -3588
01> -6244
00> -3619
01> -6339
00> -3602
01> -6306
00> -3575
01> -6221
00> -3552
01> -6159
00> -3581
01> -6234
00> -3614
01> -6335
00> -3606
01> -6308
00> -3580
01> -6234
00> -3556
01> -6177
00> -3577
01> -6240
00> -3609
01> -6331
00> -3599
01> -6304
00> -3568
01> -6223
00> -3552
01> -6167
00> -3581
01> -6236
00> -3611
01> -6328
00> -3601
01> -6305
00> -3571
01> -6219
00> -3554
01> -6161
00> -3590
01> -6232
00> -3620
01> -6333
00> -3611
01> -6312
00> -3581
01> -6223
00> -3556
01> -6166
00> -3586
01> -6240
00> -3612
01> -6334
00> -3604
01> -6306
00> -3579
01> -6227
00> -3562
01> -6172
00> -3586
01> -6241
00> -3616
01> -6341
00> -3606
01> -6314
00> -3573
01> -6227
00> -3551
01> -6162
00> -3577
01> -6227
00> -3616
01> -6331
00> -3607
01> -6307
00> -3576
01> -6222
00> -3561
01> -6161
00> -3591
01> -6226
00> -3622
01> -6331
00> -3609
01> -6309
00> -3582
01> -6224
00> -3561
01> -6167
00> -3590
01> -6231
00> -3627
01> -6330
00> -3620
01> -6314
00> -3599
01> -6235
00> -3577
01> -6175
00> -3592
01> -6234
00> -3621
01> -6331
00> -3613
01> -6308
00> -3587
01> -6227
00> -3566
01> -6166
00> -3588
01> -6217
00> -3615
01> -6314
00> -3603
01> -6294
00> -3580
01> -6221
00> -3564
01> -6161
00> -3586
01> -6223
00> -3614
01> -6324
00> -3610
01> -6304
00> -3589
01> -6233
00> -3566
01> -6172
00> -3581
01> -6219
00> -3605
01> -6311
00> -3601
01> -6289
00> -3584
01> -6216
00> -3569
01> -6165
00> -3587
01> -6226
00> -3614
01> -6327
00> -3600
01> -6301
00> -3568
01> -6214
00> -3551
01> -6159
00> -3574
01> -6212
00> -3608
01> -6307
00> -3606
01> -6297
00> -3582
01> -6222
00> -3559
01> -6152
00> -3582
01> -6206
00> -3614
01> -6305
00> -3612
01> -6295
00> -3587
01> -6220
00> -3569
01> -6164
00> -3591
01> -6213
00> -3616
01> -6307
00> -3611
01> -6294
00> -3584
01> -6221
00> -3559
01> -6157
00> -3583
01> -6208
00> -3615
01> -6305
00> -3613
01> -6295
00> -3581
01> -6214
00> -3556
01> -6152
00> -3573
01> -6197
00> -3599
01> -6294
00> -3594
01> -6284
00> -3572
01> -6206
00> -3554
01> -6146
00> -3576
01> -6201
00> -3606
01> -6301
00> -3594
01> -6287
00> -3568
01> -6207
00> -3553
01> -6142
00> -3582
01> -6196
00> -3617
01> -6304
00> -3610
01> -6300
00> -3584
01> -6221
00> -3562
01> -6152
00> -3575
01> -6192
00> -3607
01> -6291
00> -3605
01> -6281
00> -3578
01> -6208
00> -3557
01> -6149
00> -3585
01> -6205
00> -3619
01> -6309
00> -3611
01> -6303
00> -3586
01> -6229
00> -3564
01> -6162
00> -3582
01> -6211
00> -3619
01> -6314
00> -3612
01> -6309
00> -3587
01> -6230
00> -3564
01> -6157
00> -3578
01> -6194
00> -3612
01> -6292
00> -3612
01> -6286
00> -3581
01> -6211
00> -3555
01> -6144
00> -3574
01> -6190
00> -3614
01> -6297
00> -3613
01> -6294
00> -3587
01> -6217
00> -3564
01> -6151
00> -3572
01> -6183
00> -3609
01> -6291
00> -3609
01> -6291
00> -3581
01> -6212
00> -3559
01> -6150
00> -3579
01> -6203
00> -3615
01> -6309
00> -3616
01> -6306
00> -3592
01> -6228
00> -3576
01> -6168
00> -3594
01> -6216
00> -3630
01> -6324
00> -3625
01> -6319
00> -3595
01> -6240
00> -3568
01> -6167
00> -3583
01> -6197
00> -3617
01> -6287
00> -3615
01> -6273
00> -3586
01> -6197
00> -3555
01> -6125
00> -3562
01> -6149
00> -3583
01> -6245
00> -3574
01> -6239
00> -3553
01> -6165
00> -3531
01> -6092
00> -3550
01> -6132
00> -3587
01> -6247
00> -3580
01> -6246
00> -3556
01> -6169
00> -3535
01> -6107
00> -3554
01> -6148
00> -3586
01> -6251
00> -3586
01> -6254
00> -3562
01> -6181
00> -3543
01> -6113
00> -3559
01> -6151
00> -3586
01> -6256
00> -3584
01> -6261
00> -3563
01> -6191
00> -3537
01> -6124
00> -3544
01> -6149
00> -3578
01> -6254
00> -3576
01> -6261
00> -3549
01> -6184
00> -3527
01> -6118
00> -3546
01> -6157
00> -3589
01> -6269
00> -3585
01> -6269
00> -3558
01> -6188
00> -3535
01> -6118
00> -3550
01> -6167
00> -3588
01> -6292
00> -3588
01> -6294
00> -3564
01> -6216
00> -3535
01> -6143
00> -3546
01> -6174
00> -3576
01> -6282
00> -3578
01> -6285
00> -3556
01> -6204
00> -3536
01> -6134
00> -3548
01> -6169
00> -3585
01> -6277
00> -3582
01> -6282
00> -3549
01> -6203
00> -3522
01> -6126
00> -3532
01> -6145
00> -3567
01> -6247
00> -3570
01> -6253
00> -3553
01> -6196
00> -3532
01> -6132
00> -3545
01> -6158
00> -3582
01> -6266
00> -3582
01> -6273
00> -3552
01> -6200
00> -3522
01> -6121
00> -3532
01> -6147
00> -3566
01> -6252
00> -3572
01> -6262
00> -3552
01> -6194
00> -3532
01> -6125
00> -3542
01> -6154
00> -3576
01> -6261
00> -3580
01> -6272
00> -3558
01> -6203
00> -3529
01> -6130
00> -3539
01> -6148
00> -3568
01> -6252
00> -3569
01> -6258
00> -3534
01> -6173
00> -3501
01> -6095
00> -3511
01> -6124
00> -3539
01> -6224
00> -3526
01> -6212
00> -3498
01> -6126
00> -3452
01> -6021
00> -3450
01> -6013
00> -3477
01> -6088
00> -3449
01> -6055
00> -3395
01> -5939
00> -3345
01> -5830
00> -3329
01> -5812
00> -3337
01> -5869
00> -3304
01> -5827
00> -3246
01> -5688
00> -3176
01> -5544
00> -3156
01> -5516
00> -3171
01> -5585
00> -3152
01> -5547
00> -3098
01> -5434
00> -3042
01> -5316
00> -3016
01> -5284
00> -3024
01> -5352
00> -3003
01> -5328
00> -2957
01> -5213
00> -2909
01> -5099
00> -2900
01> -5085
00> -2919
01> -5174
00> -2915
01> -5173
00> -2882
01> -5079
00> -2837
01> -4977
00> -2836
01> -4981
00> -2860
01> -5076
00> -2849
01> -5077
00> -2812
01> -4997
00> -2777
01> -4897
00> -2782
01> -4892
00> -2819
01> -4992
00> -2824
01> -5001
00> -2792
01> -4925
00> -2759
01> -4847
00> -2762
01> -4854
00> -2785
01> -4947
00> -2771
01> -4946
00> -2736
01> -4850
00> -2709
01> -4769
00> -2717
01> -4782
00> -2746
01> -4889
00> -2746
01> -4907
00> -2720
01> -4834
00> -2692
01> -4752
00> -2694
01> -4753
00> -2726
01> -4851
00> -2734
01> -4867
00> -2708
01> -4787
00> -2679
01> -4702
00> -2681
01> -4711
00> -2718
01> -4822
00> -2714
01> -4833
00> -2689
01> -4758
00> -2661
01> -4673
00> -2661
01> -4677
00> -2699
01> -4789
00> -2701
01> -4816
00> -2682
01> -4744
00> -2654
01> -4651
00> -2657
01> -4647
00> -2694
01> -4747
00> -2701
01> -4768
00> -2674
01> -4701
00> -2640
01> -4621
00> -2642
01> -4626
00> -2672
01> -4729
00> -2665
01> -4739
00> -2632
01> -4653
00> -2606
01> -4564
00> -2606
01> -4564
00> -2639
01> -4671
00> -2644
01> -4695
00> -2619
01> -4619
00> -2593
01> -4536
00> -2599
01> -4534
00> -2637
01> -4638
00> -2646
01> -4664
00> -2631
01> -4600
00> -2602
01> -4522
00> -2609
01> -4541
00> -2644
01> -4659
00> -2650
01> -4693
00> -2637
01> -4637
00> -2621
01> -4576
00> -2634
01> -4594
00> -2681
01> -4712
00> -2694
01> -4743
00> -2676
01> -4679
00> -2651
01> -4604
00> -2654
01> -4599
00> -2687
01> -4702
00> -2691
01> -4724
00> -2661
01> -4654
00> -2634
01> -4576
00> -2634
01> -4581
00> -2661
01> -4678
00> -2662
01> -4696
00> -2637
01> -4622
00> -2609
01> -4542
00> -2607
01> -4547
00> -2637
01> -4641
00> -2641
01> -4665
00> -2617
01> -4595
00> -2593
01> -4520
00> -2599
01> -4523
00> -2631
01> -4621
00> -2637
01> -4655
00> -2624
01> -4606
00> -2599
01> -4532
00> -2604
01> -4530
00> -2636
01> -4627
00> -2644
01> -4657
00> -2635
01> -4614
00> -2610
01> -4549
00> -2615
01> -4547
00> -2644
01> -4632
00> -2642
01> -4644
00> -2624
01> -4578
00> -2607
01> -4512
00> -2609
01> -4505
00> -2634
01> -4583
00> -2641
01> -4603
00> -2616
01> -4541
00> -2587
01> -4466
00> -2586
01> -4461
00> -2622
01> -4546
00> -2634
01> -4577
00> -2621
01> -4534
00> -2601
01> -4474
00> -2602
01> -4471
00> -2642
01> -4569
00> -2651
01> -4613
00> -2637
01> -4580
00> -2622
01> -4526
00> -2622
01> -4524
00> -2652
01> -4612
00> -2662
01> -4650
00> -2642
01> -4597
00> -2621
01> -4523
00> -2624
01> -4514
00> -2660
01> -4604
00> -2669
01> -4640
00> -2648
01> -4582
00> -2625
01> -4509
00> -2624
01> -4494
00> -2647
01> -4568
00> -2648
01> -4602
00> -2626
01> -4542
00> -2602
01> -4467
00> -2609
01> -4466
00> -2649
01> -4564
00> -2666
01> -4607
00> -2659
01> -4562
00> -2634
01> -4490
00> -2634
01> -4482
00> -2669
01> -4589
00> -2679
01> -4632
00> -2658
01> -4574
00> -2632
01> -4508
00> -2636
01> -4510
00> -2669
01> -4614
00> -2674
01> -4649
00> -2651
01> -4584
00> -2621
01> -4494
00> -2631
01> -4490
00> -2679
01> -4609
00> -2688
01> -4644
00> -2666
01> -4564
00> -2626
01> -4456
00> -2609
01> -4424
00> -2646
01> -4536
00> -2664
01> -4596
00> -2637
01> -4541
00> -2600
01> -4463
00> -2596
01> -4454
00> -2631
01> -4561
00> -2646
01> -4611
00> -2634
01> -4557
00> -2609
01> -4491
00> -2597
01> -4471
00> -2631
01> -4576
00> -2649
01> -4640
00> -2633
01> -4597
00> -2607
01> -4527
00> -2604
01> -4512
00> -2639
01> -4614
00> -2645
01> -4662
00> -2631
01> -4611
00> -2611
01> -4548
00> -2607
01> -4537
00> -2639
01> -4634
00> -2652
01> -4682
00> -2634
01> -4618
00> -2600
01> -4527
00> -2602
01> -4514
00> -2637
01> -4621
00> -2656
01> -4681
00> -2644
01> -4636
00> -2614
01> -4552
00> -2599
01> -4529
00> -2635
01> -4639
00> -2654
01> -4693
00> -2629
01> -4619
00> -2595
01> -4527
00> -2585
01> -4501
00> -2625
01> -4611
00> -2645
01> -4675
00> -2633
01> -4623
00> -2601
01> -4531
00> -2591
01> -4495
00> -2617
01> -4587
00> -2629
01> -4645
00> -2604
01> -4579
00> -2570
01> -4488
00> -2574
01> -4479
00> -2617
01> -4591
00> -2625
01> -4640
00> -2600
01> -4574
00> -2572
01> -4484
00> -2571
01> -4461
00> -2613
01> -4568
00> -2635
01> -4623
00> -2622
01> -4569
00> -2602
01> -4496
00> -2602
01> -4476
00> -2638
01> -4587
00> -2659
01> -4657
00> -2636
01> -4589
00> -2612
01> -4509
00> -2622
01> -4499
00> -2671
01> -4614
00> -2692
01> -4672
00> -2669
01> -4594
00> -2631
01> -4495
00> -2638
01> -4484
00> -2694
01> -4610
00> -2717
01> -4683
00> -2696
01> -4615
00> -2674
01> -4529
00> -2675
01> -4508
00> -2718
01> -4631
00> -2746
01> -4710
00> -2733
01> -4656
00> -2710
01> -4569
00> -2707
01> -4542
00> -2741
01> -4642
00> -2752
01> -4703
00> -2727
01> -4646
00> -2696
01> -4557
00> -2692
01> -4519
00> -2737
01> -4627
00> -2762
01> -4704
00> -2750
01> -4645
00> -2726
01> -4560
00> -2724
01> -4535
00> -2779
01> -4654
00> -2814
01> -4731
00> -2795
01> -4672
00> -2753
01> -4573
00> -2741
01> -4529
00> -2776
01> -4636
00> -2787
01> -4707
00> -2766
01> -4654
00> -2735
01> -4567
00> -2729
01> -4535
00> -2762
01> -4641
00> -2786
01> -4715
00> -2777
01> -4662
00> -2754
01> -4579
00> -2747
01> -4552
00> -2784
01> -4657
00> -2810
01> -4728
00> -2795
01> -4669
00> -2761
01> -4576
00> -2758
01> -4541
00> -2792
01> -4642
00> -2805
01> -4708
00> -2780
01> -4653
00> -2746
01> -4552
00> -2732
01> -4511
00> -2762
01> -4614
00> -2791
01> -4692
00> -2779
01> -4646
00> -2747
01> -4549
00> -2739
01> -4506
00> -2774
01> -4611
00> -2787
01> -4684
00> -2763
01> -4626
00> -2736
01> -4532
00> -2727
01> -4504
00> -2765
01> -4619
00> -2788
01> -4706
00> -2777
01> -4664
00> -2754
01> -4581
00> -2749
01> -4550
00> -2782
01> -4654
00> -2797
01> -4725
00> -2778
01> -4665
00> -2756
01> -4580
00> -2751
01> -4551
00> -2783
01> -4652
00> -2804
01> -4731
00> -2787
01> -4678
00> -2753
01> -4584
00> -2735
01> -4539
00> -2769
01> -4629
00> -2787
01> -4707
00> -2772
01> -4659
00> -2735
01> -4557
00> -2716
01> -4502
00> -2745
01> -4591
00> -2767
01> -4672
00> -2752
01> -4633
00> -2725
01> -4553
00> -2714
01> -4517
00> -2750
01> -4618
00> -2776
01> -4699
00> -2758
01> -4657
00> -2730
01> -4577
00> -2724
01> -4549
00> -2757
01> -4650
00> -2777
01> -4726
00> -2763
01> -4679
00> -2738
01> -4591
00> -2733
01> -4549
00> -2766
01> -4643
00> -2792
01> -4722
00> -2777
01> -4671
00> -2749
01> -4574
00> -2738
01> -4539
00> -2777
01> -4643
00> -2799
01> -4718
00> -2772
01> -4653
00> -2735
01> -4552
00> -2714
01> -4501
00> -2744
01> -4601
00> -2766
01> -4684
00> -2747
01> -4633
00> -2721
01> -4552
00> -2709
01> -4529
00> -2752
01> -4647
00> -2791
01> -4736
00> -2766
01> -4679
00> -2731
01> -4582
00> -2712
01> -4540
00> -2760
01> -4662
00> -2803
01> -4770
00> -2791
01> -4726
00> -2756
01> -4633
00> -2736
01> -4574
00> -2780
01> -4668
00> -2808
01> -4756
00> -2787
01> -4704
00> -2753
01> -4607
00> -2732
01> -4550
00> -2764
01> -4644
00> -2785
01> -4732
00> -2764
01> -4679
00> -2729
01> -4589
00> -2706
01> -4539
00> -2726
01> -4630
00> -2747
01> -4719
00> -2730
01> -4672
00> -2701
01> -4590
00> -2691
01> -4545
00> -2727
01> -4651
00> -2751
01> -4751
00> -2733
01> -4710
00> -2709
01> -4625
00> -2697
01> -4574
00> -2737
01> -4678
00> -2762
01> -4776
00> -2746
01> -4733
00> -2720
01> -4633
00> -2704
01> -4577
00> -2739
01> -4665
00> -2769
01> -4761
00> -2754
01> -4717
00> -2726
01> -4611
00> -2707
01> -4552
00> -2735
01> -4638
00> -2754
01> -4721
00> -2734
01> -4677
00> -2702
01> -4593
00> -2684
01> -4539
00> -2724
01> -4630
00> -2756
01> -4739
00> -2743
01> -4712
00> -2711
01> -4630
00> -2697
01> -4579
00> -2731
01> -4664
00> -2756
01> -4756
00> -2748
01> -4724
00> -2724
01> -4643
00> -2714
01> -4591
00> -2751
01> -4687
00> -2786
01> -4794
00> -2776
01> -4758
00> -2741
01> -4666
00> -2715
01> -4606
00> -2749
01> -4693
00> -2776
01> -4791
00> -2754
01> -4739
00> -2717
01> -4641
00> -2706
01> -4592
00> -2742
01> -4683
00> -2770
01> -4786
00> -2756
01> -4756
00> -2726
01> -4673
00> -2714
01> -4621
00> -2756
01> -4708
00> -2792
01> -4809
00> -2781
01> -4776
00> -2752
01> -4689
00> -2733
01> -4629
00> -2762
01> -4712
00> -2810
01> -4826
00> -2804
01> -4797
00> -2776
01> -4716
00> -2764
01> -4672
00> -2796
01> -4762
00> -2821
01> -4859
00> -2806
01> -4817
00> -2780
01> -4719
00> -2768
01> -4669
00> -2805
01> -4760
00> -2839
01> -4864
00> -2822
01> -4833
00> -2789
01> -4741
00> -2772
01> -4680
00> -2812
01> -4764
00> -2850
01> -4869
00> -2845
01> -4851
00> -2812
01> -4772
00> -2792
01> -4721
00> -2831
01> -4816
00> -2858
01> -4912
00> -2847
01> -4874
00> -2819
01> -4781
00> -2795
01> -4719
00> -2825
01> -4799
00> -2862
01> -4912
00> -2849
01> -4881
00> -2810
01> -4784
00> -2794
01> -4718
00> -2831
01> -4796
00> -2864
01> -4895
00> -2841
01> -4844
00> -2803
01> -4729
00> -2782
01> -4658
00> -2814
01> -4731
00> -2853
01> -4824
00> -2847
01> -4789
00> -2819
01> -4704
00> -2801
01> -4645
00> -2837
01> -4726
00> -2877
01> -4829
00> -2874
01> -4795
00> -2842
01> -4717
00> -2829
01> -4676
00> -2861
01> -4761
00> -2893
01> -4871
00> -2888
01> -4848
00> -2856
01> -4762
00> -2836
01> -4696
00> -2881
01> -4781
00> -2917
01> -4885
00> -2904
01> -4847
00> -2872
01> -4754
00> -2847
01> -4680
00> -2879
01> -4744
00> -2909
01> -4838
00> -2890
01> -4800
00> -2846
01> -4702
00> -2816
01> -4633
00> -2832
01> -4695
00> -2857
01> -4790
00> -2851
01> -4769
00> -2822
01> -4689
00> -2799
01> -4617
00> -2827
01> -4689
00> -2874
01> -4814
00> -2867
01> -4791
00> -2836
01> -4698
00> -2812
01> -4627
00> -2840
01> -4699
00> -2879
01> -4810
00> -2873
01> -4788
00> -2845
01> -4701
00> -2822
01> -4649
00> -2854
01> -4731
00> -2891
01> -4849
00> -2869
01> -4822
00> -2831
01> -4729
00> -2809
01> -4654
00> -2832
01> -4703
00> -2865
01> -4799
00> -2852
01> -4767
00> -2814
01> -4672
00> -2784
01> -4597
00> -2799
01> -4657
00> -2828
01> -4766
00> -2817
01> -4744
00> -2788
01> -4657
00> -2761
01> -4596
00> -2787
01> -4670
00> -2829
01> -4787
00> -2815
01> -4770
00> -2777
01> -4678
00> -2754
01> -4610
00> -2789
01> -4685
00> -2831
01> -4798
00> -2817
01> -4770
00> -2786
01> -4684
00> -2766
01> -4619
00> -2793
01> -4690
00> -2826
01> -4806
00> -2812
01> -4789
00> -2781
01> -4704
00> -2756
01> -4631
00> -2776
01> -4692
00> -2802
01> -4801
00> -2791
01> -4784
00> -2757
01> -4693
00> -2724
01> -4616
00> -2747
01> -4673
00> -2777
01> -4772
00> -2756
01> -4744
00> -2722
01> -4653
00> -2691
01> -4574
00> -2713
01> -4636
00> -2745
01> -4749
00> -2735
01> -4724
00> -2701
01> -4636
00> -2677
01> -4576
00> -2697
01> -4634
00> -2733
01> -4746
00> -2734
01> -4736
00> -2713
01> -4656
00> -2700
01> -4595
00> -2728
01> -4659
00> -2763
01> -4777
00> -2751
01> -4764
00> -2718
01> -4673
00> -2689
01> -4604
00> -2714
01> -4677
00> -2756
01> -4797
00> -2750
01> -4781
00> -2723
01> -4695
00> -2699
01> -4631
00> -2719
01> -4681
00> -2754
01> -4786
00> -2754
01> -4776
00> -2726
01> -4684
00> -2698
01> -4608
00> -2719
01> -4661
00> -2767
01> -4785
00> -2769
01> -4777
00> -2738
01> -4689
00> -2715
01> -4627
00> -2742
01> -4685
00> -2780
01> -4798
00> -2772
01> -4780
00> -2746
01> -4681
00> -2729
01> -4604
00> -2748
01> -4655
00> -2784
01> -4781
00> -2790
01> -4789
00> -2771
01> -4717
00> -2743
01> -4645
00> -2776
01> -4711
00> -2826
01> -4841
00> -2822
01> -4829
00> -2788
01> -4742
00> -2758
01> -4664
00> -2775
01> -4716
00> -2816
01> -4849
00> -2814
01> -4846
00> -2785
01> -4759
00> -2759
01> -4681
00> -2784
01> -4730
00> -2824
01> -4844
00> -2813
01> -4827
00> -2789
01> -4741
00> -2764
01> -4667
00> -2784
01> -4724
00> -2827
01> -4850
00> -2832
01> -4851
00> -2811
01> -4771
00> -2784
01> -4685
00> -2800
01> -4727
00> -2836
01> -4849
00> -2839
01> -4853
00> -2821
01> -4777
00> -2797
01> -4706
00> -2819
01> -4763
00> -2867
01> -4899
00> -2867
01> -4897
00> -2839
01> -4808
00> -2816
01> -4736
00> -2835
01> -4790
00> -2877
01> -4913
00> -2876
01> -4916
00> -2853
01> -4836
00> -2840
01> -4764
00> -2855
01> -4815
00> -2889
01> -4936
00> -2882
01> -4924
00> -2850
01> -4831
00> -2828
01> -4761
00> -2850
01> -4811
00> -2892
01> -4927
00> -2885
01> -4916
00> -2848
01> -4816
00> -2824
01> -4741
00> -2839
01> -4792
00> -2879
01> -4918
00> -2872
01> -4907
00> -2845
01> -4819
00> -2824
01> -4752
00> -2854
01> -4808
00> -2894
01> -4933
00> -2892
01> -4936
00> -2859
01> -4843
00> -2828
01> -4761
00> -2851
01> -4817
00> -2894
01> -4954
00> -2891
01> -4953
00> -2856
01> -4844
00> -2828
01> -4748
00> -2859
01> -4811
00> -2906
01> -4946
00> -2910
01> -4946
00> -2872
01> -4850
00> -2832
01> -4764
00> -2852
01> -4802
00> -2897
01> -4926
00> -2891
01> -4919
00> -2856
01> -4824
00> -2820
01> -4733
00> -2835
01> -4769
00> -2876
01> -4892
00> -2870
01> -4892
00> -2840
01> -4803
00> -2811
01> -4722
00> -2827
01> -4768
00> -2867
01> -4896
00> -2854
01> -4891
00> -2823
01> -4794
00> -2800
01> -4714
00> -2820
01> -4755
00> -2861
01> -4879
00> -2857
01> -4879
00> -2824
01> -4791
00> -2792
01> -4701
00> -2806
01> -4726
00> -2844
01> -4843
00> -2844
01> -4849
00> -2815
01> -4769
00> -2784
01> -4689
00> -2795
01> -4715
00> -2842
01> -4839
00> -2846
01> -4847
00> -2816
01> -4758
00> -2789
01> -4677
00> -2804
01> -4719
00> -2848
01> -4852
00> -2854
01> -4864
00> -2836
01> -4792
00> -2811
01> -4719
00> -2830
01> -4757
00> -2879
01> -4892
00> -2887
01> -4910
00> -2861
01> -4837
00> -2834
01> -4756
00> -2843
01> -4780
00> -2887
01> -4909
00> -2897
01> -4929
00> -2862
01> -4835
00> -2822
01> -4737
00> -2837
01> -4764
00> -2881
01> -4883
00> -2889
01> -4905
00> -2858
01> -4828
00> -2812
01> -4729
00> -2827
01> -4751
00> -2874
01> -4881
00> -2876
01> -4894
00> -2844
01> -4807
00> -2816
01> -4718
00> -2830
01> -4748
00> -2871
01> -4872
00> -2869
01> -4886
00> -2841
01> -4804
00> -2817
01> -4732
00> -2839
01> -4774
00> -2890
01> -4905
00> -2898
01> -4918
00> -2871
01> -4832
00> -2842
01> -4746
00> -2854
01> -4766
00> -2891
01> -4896
00> -2893
01> -4918
00> -2867
01> -4833
00> -2840
01> -4740
00> -2846
01> -4762
00> -2884
01> -4881
00> -2876
01> -4881
00> -2843
01> -4782
00> -2804
01> -4689
00> -2808
01> -4708
00> -2852
01> -4836
00> -2851
01> -4857
00> -2822
01> -4780
00> -2796
01> -4704
00> -2808
01> -4729
00> -2846
01> -4851
00> -2848
01> -4877
00> -2825
01> -4806
00> -2807
01> -4733
00> -2829
01> -4767
00> -2876
01> -4907
00> -2881
01> -4933
00> -2853
01> -4842
00> -2825
01> -4754
00> -2847
01> -4784
00> -2894
01> -4912
00> -2901
01> -4930
00> -2862
01> -4836
00> -2821
01> -4732
00> -2837
01> -4754
00> -2887
01> -4882
00> -2889
01> -4897
00> -2856
01> -4800
00> -2826
01> -4717
00> -2835
01> -4752
00> -2874
01> -4878
00> -2875
01> -4892
00> -2847
01> -4814
00> -2822
01> -4741
00> -2839
01> -4770
00> -2882
01> -4904
00> -2889
01> -4935
00> -2864
01> -4857
00> -2842
01> -4774
00> -2857
01> -4807
00> -2902
01> -4947
00> -2909
01> -4972
00> -2889
01> -4891
00> -2861
01> -4804
00> -2869
01> -4811
00> -2913
01> -4930
00> -2911
01> -4944
00> -2872
01> -4847
00> -2836
01> -4736
00> -2840
01> -4732
00> -2886
01> -4865
00> -2896
01> -4891
00> -2875
01> -4809
00> -2847
01> -4717
00> -2847
01> -4723
00> -2883
01> -4839
00> -2886
01> -4859
00> -2859
01> -4783
00> -2832
01> -4697
00> -2831
01> -4702
00> -2874
01> -4835
00> -2891
01> -4877
00> -2867
01> -4801
00> -2842
01> -4725
00> -2856
01> -4746
00> -2898
01> -4874
00> -2900
01> -4900
00> -2874
01> -4820
00> -2852
01> -4747
00> -2857
01> -4753
00> -2887
01> -4857
00> -2891
01> -4874
00> -2865
01> -4792
00> -2827
01> -4697
00> -2827
01> -4704
00> -2864
01> -4824
00> -2868
01> -4856
00> -2837
01> -4772
00> -2806
01> -4690
00> -2809
01> -4701
00> -2848
01> -4820
00> -2851
01> -4847
00> -2824
01> -4776
00> -2785
01> -4694
00> -2790
01> -4703
00> -2832
01> -4827
00> -2840
01> -4869
00> -2809
01> -4793
00> -2777
01> -4712
00> -2778
01> -4721
00> -2824
01> -4856
00> -2834
01> -4899
00> -2794
01> -4814
00> -2759
01> -4726
00> -2759
01> -4731
00> -2789
01> -4853
00> -2781
01> -4875
00> -2750
01> -4786
00> -2714
01> -4684
00> -2713
01> -4681
00> -2747
01> -4805
00> -2754
01> -4846
00> -2739
01> -4780
00> -2711
01> -4704
00> -2717
01> -4716
00> -2767
01> -4856
00> -2776
01> -4893
00> -2748
01> -4811
00> -2719
01> -4714
00> -2736
01> -4734
00> -2784
01> -4875
00> -2794
01> -4916
00> -2772
01> -4834
00> -2742
01> -4733
00> -2749
01> -4734
00> -2797
01> -4861
00> -2805
01> -4895
00> -2779
01> -4810
00> -2753
01> -4712
00> -2772
01> -4716
00> -2818
01> -4834
00> -2829
01> -4867
00> -2811
01> -4788
00> -2789
01> -4699
00> -2794
01> -4699
00> -2841
01> -4828
00> -2852
01> -4873
00> -2829
01> -4796
00> -2807
01> -4716
00> -2816
01> -4724
00> -2861
01> -4853
00> -2874
01> -4910
00> -2851
01> -4848
00> -2818
01> -4759
00> -2829
01> -4752
00> -2874
01> -4885
00> -2882
01> -4922
00> -2853
01> -4838
00> -2821
01> -4741
00> -2817
01> -4732
00> -2864
01> -4856
00> -2883
01> -4893
00> -2864
01> -4820
00> -2829
01> -4731
00> -2827
01> -4724
00> -2870
01> -4847
00> -2878
01> -4887
00> -2851
01> -4821
00> -2818
01> -4731
00> -2815
01> -4715
00> -2854
01> -4833
00> -2874
01> -4887
00> -2856
01> -4819
00> -2822
01> -4734
00> -2826
01> -4726
00> -2864
01> -4847
00> -2871
01> -4894
00> -2844
01> -4829
00> -2815
01> -4753
00> -2806
01> -4747
00> -2841
01> -4862
00> -2856
01> -4920
00> -2833
01> -4860
00> -2796
01> -4769
00> -2789
01> -4756
00> -2832
01> -4878
00> -2842
01> -4926
00> -2809
01> -4846
00> -2774
01> -4746
00> -2773
01> -4738
00> -2811
01> -4864
00> -2823
01> -4913
00> -2806
01> -4844
00> -2779
01> -4761
00> -2778
01> -4746
00> -2825
01> -4872
00> -2840
01> -4917
00> -2811
01> -4843
00> -2777
01> -4743
00> -2791
01> -4736
00> -2836
01> -4867
00> -2846
01> -4916
00> -2824
01> -4844
00> -2796
01> -4757
00> -2784
01> -4742
00> -2812
01> -4849
00> -2828
01> -4886
00> -2807
01> -4812
00> -2774
01> -4717
00> -2763
01> -4694
00> -2799
01> -4799
00> -2812
01> -4837
00> -2794
01> -4772
00> -2764
01> -4690
00> -2766
01> -4677
00> -2817
01> -4809
00> -2830
01> -4864
00> -2808
01> -4797
00> -2782
01> -4713
00> -2783
01> -4706
00> -2819
01> -4826
00> -2836
01> -4886
00> -2814
01> -4825
00> -2787
01> -4742
00> -2792
01> -4735
00> -2841
01> -4862
00> -2862
01> -4921
00> -2844
01> -4849
00> -2812
01> -4757
00> -2809
01> -4746
00> -2844
01> -4849
00> -2852
01> -4890
00> -2833
01> -4824
00> -2801
01> -4738
00> -2809
01> -4728
00> -2852
01> -4842
00> -2864
01> -4891
00> -2834
01> -4815
00> -2803
01> -4727
00> -2803
01> -4721
00> -2844
01> -4857
00> -2866
01> -4922
00> -2846
01> -4851
00> -2815
01> -4766
00> -2810
01> -4749
00> -2854
01> -4868
00> -2874
01> -4930
00> -2851
01> -4868
00> -2814
01> -4770
00> -2807
01> -4738
00> -2846
01> -4852
00> -2867
01> -4915
00> -2846
01> -4856
00> -2816
01> -4757
00> -2810
01> -4719
00> -2850
01> -4832
00> -2878
01> -4904
00> -2854
01> -4847
00> -2824
01> -4764
00> -2817
01> -4747
00> -2862
01> -4874
00> -2879
01> -4936
00> -2858
01> -4862
00> -2833
01> -4767
00> -2830
01> -4752
00> -2864
01> -4877
00> -2886
01> -4949
00> -2876
01> -4889
00> -2849
01> -4791
00> -2851
01> -4766
00> -2899
01> -4892
00> -2922
01> -4967
00> -2903
01> -4900
00> -2870
01> -4809
00> -2864
01> -4784
00> -2903
01> -4897
00> -2928
01> -4964
00> -2909
01> -4899
00> -2869
01> -4792
00> -2857
01> -4759
00> -2892
01> -4864
00> -2911
01> -4928
00> -2891
01> -4865
00> -2862
01> -4779
00> -2854
01> -4751
00> -2896
01> -4865
00> -2922
01> -4947
00> -2904
01> -4896
00> -2872
01> -4808
00> -2864
01> -4795
00> -2907
01> -4917
00> -2931
01> -4982
00> -2911
01> -4921
00> -2885
01> -4826
00> -2889
01> -4795
00> -2931
01> -4901
00> -2952
01> -4965
00> -2926
01> -4911
00> -2886
01> -4822
00> -2880
01> -4794
00> -2923
01> -4906
00> -2940
01> -4960
00> -2911
01> -4890
00> -2881
01> -4805
00> -2876
01> -4781
00> -2914
01> -4890
00> -2941
01> -4966
00> -2918
01> -4908
00> -2881
01> -4812
00> -2877
01> -4787
00> -2917
01> -4899
00> -2932
01> -4959
00> -2913
01> -4906
00> -2882
01> -4815
00> -2879
01> -4792
00> -2919
01> -4912
00> -2937
01> -4979
00> -2920
01> -4916
00> -2894
01> -4824
00> -2888
01> -4794
00> -2920
01> -4906
00> -2931
01> -4959
00> -2909
01> -4887
00> -2883
01> -4802
00> -2868
01> -4777
00> -2887
01> -4884
00> -2900
01> -4957
00> -2875
01> -4896
00> -2833
01> -4802
00> -2817
01> -4764
00> -2849
01> -4859
00> -2871
01> -4931
00> -2853
01> -4884
00> -2829
01> -4800
00> -2829
01> -4777
00> -2869
01> -4902
00> -2891
01> -4980
00> -2868
01> -4921
00> -2829
01> -4819
00> -2819
01> -4781
00> -2861
01> -4891
00> -2889
01> -4973
00> -2866
01> -4909
00> -2826
01> -4809
00> -2814
01> -4767
00> -2852
01> -4881
00> -2871
01> -4961
00> -2852
01> -4895
00> -2821
01> -4790
00> -2813
01> -4759
00> -2847
01> -4869
00> -2869
01> -4954
00> -2853
01> -4906
00> -2823
01> -4816
00> -2811
01> -4791
00> -2851
01> -4901
00> -2875
01> -4972
00> -2857
01> -4909
00> -2834
01> -4815
00> -2826
01> -4777
00> -2872
01> -4892
00> -2890
01> -4979
00> -2867
01> -4923
00> -2837
01> -4829
00> -2826
01> -4792
00> -2862
01> -4895
00> -2876
01> -4961
00> -2855
01> -4890
00> -2817
01> -4795
00> -2811
01> -4759
00> -2854
01> -4875
00> -2876
01> -4956
00> -2852
01> -4894
00> -2818
01> -4791
00> -2802
01> -4739
00> -2840
01> -4848
00> -2866
01> -4941
00> -2856
01> -4903
00> -2826
01> -4824
00> -2811
01> -4782
00> -2848
01> -4877
00> -2865
01> -4958
00> -2851
01> -4915
00> -2821
01> -4824
00> -2809
01> -4779
00> -2849
01> -4891
00> -2877
01> -4973
00> -2859
01> -4919
00> -2832
01> -4827
00> -2816
01> -4779
00> -2849
01> -4879
00> -2876
01> -4966
00> -2850
01> -4902
00> -2811
01> -4800
00> -2802
01> -4759
00> -2839
01> -4864
00> -2862
01> -4946
00> -2839
01> -4883
00> -2806
01> -4779
00> -2788
01> -4731
00> -2814
01> -4832
00> -2831
01> -4902
00> -2818
01> -4848
00> -2784
01> -4761
00> -2774
01> -4723
00> -2817
01> -4835
00> -2844
01> -4922
00> -2829
01> -4871
00> -2803
01> -4790
00> -2792
01> -4752
00> -2829
01> -4852
00> -2849
01> -4937
00> -2843
01> -4896
00> -2824
01> -4814
00> -2824
01> -4784
00> -2867
01> -4886
00> -2902
01> -4967
00> -2892
01> -4905
00> -2852
01> -4793
00> -2837
01> -4727
00> -2874
01> -4821
00> -2902
01> -4907
00> -2887
01> -4859
00> -2858
01> -4766
00> -2839
01> -4714
00> -2869
01> -4806
00> -2899
01> -4901
00> -2882
01> -4853
00> -2853
01> -4771
00> -2846
01> -4742
00> -2894
01> -4859
00> -2929
01> -4962
00> -2918
01> -4913
00> -2894
01> -4821
00> -2886
01> -4780
00> -2918
01> -4881
00> -2949
01> -4982
00> -2927
01> -4936
00> -2892
01> -4839
00> -2876
01> -4789
00> -2919
01> -4886
00> -2948
01> -4977
00> -2931
01> -4923
00> -2896
01> -4820
00> -2881
01> -4763
00> -2914
01> -4859
00> -2936
01> -4952
00> -2910
01> -4913
00> -2877
01> -4822
00> -2864
01> -4774
00> -2901
01> -4876
00> -2931
01> -4971
00> -2912
01> -4922
00> -2875
01> -4818
00> -2861
01> -4766
00> -2904
01> -4862
00> -2935
01> -4966
00> -2922
01> -4927
00> -2887
01> -4835
00> -2868
01> -4783
00> -2906
01> -4884
00> -2933
01> -4984
00> -2915
01> -4921
00> -2874
01> -4812
00> -2852
01> -4750
00> -2887
01> -4847
00> -2919
01> -4951
00> -2898
01> -4897
00> -2862
01> -4802
00> -2847
01> -4747
00> -2891
01> -4848
00> -2924
01> -4945
00> -2907
01> -4898
00> -2874
01> -4811
00> -2856
01> -4764
00> -2895
01> -4867
00> -2930
01> -4973
00> -2920
01> -4937
00> -2894
01> -4854
00> -2875
01> -4803
00> -2913
01> -4899
00> -2947
01> -4985
00> -2932
01> -4944
00> -2896
01> -4851
00> -2874
01> -4792
00> -2910
01> -4885
00> -2933
01> -4984
00> -2912
01> -4934
00> -2884
01> -4836
00> -2867
01> -4781
00> -2897
01> -4863
00> -2930
01> -4962
00> -2912
01> -4927
00> -2879
01> -4836
00> -2864
01> -4775
00> -2895
01> -4859
00> -2922
01> -4960
00> -2911
01> -4927
00> -2882
01> -4832
00> -2866
01> -4782
00> -2899
01> -4879
00> -2942
01> -4983
00> -2936
01> -4952
00> -2904
01> -4859
00> -2879
01> -4788
00> -2915
01> -4875
00> -2943
01> -4974
00> -2931
01> -4936
00> -2899
01> -4846
00> -2884
01> -4783
00> -2910
01> -4863
00> -2945
01> -4969
00> -2939
01> -4941
00> -2910
01> -4851
00> -2890
01> -4784
00> -2917
01> -4856
00> -2946
01> -4955
00> -2942
01> -4924
00> -2914
01> -4834
00> -2891
01> -4770
00> -2920
01> -4854
00> -2943
01> -4942
00> -2921
01> -4889
00> -2889
01> -4794
00> -2872
01> -4741
00> -2906
01> -4826
00> -2935
01> -4929
00> -2922
01> -4894
00> -2889
01> -4787
00> -2871
01> -4729
00> -2912
01> -4835
00> -2942
01> -4948
00> -2924
01> -4908
00> -2891
01> -4804
00> -2874
01> -4752
00> -2904
01> -4842
00> -2929
01> -4939
00> -2909
01> -4898
00> -2877
01> -4804
00> -2854
01> -4746
00> -2886
01> -4831
00> -2918
01> -4938
00> -2909
01> -4918
00> -2884
01> -4840
00> -2869
01> -4776
00> -2901
01> -4852
00> -2936
01> -4955
00> -2933
01> -4927
00> -2909
01> -4844
00> -2888
01> -4793
00> -2912
01> -4891
00> -2947
01> -5011
00> -2951
01> -4994
00> -2919
01> -4904
00> -2894
01> -4842
00> -2924
01> -4924
00> -2958
01> -5036
00> -2944
01> -4994
00> -2914
01> -4894
00> -2891
01> -4828
00> -2919
01> -4906
00> -2941
01> -5006
00> -2929
01> -4974
00> -2903
01> -4885
00> -2886
01> -4832
00> -2921
01> -4923
00> -2954
01> -5033
00> -2937
01> -4994
00> -2905
01> -4893
00> -2877
01> -4827
00> -2907
01> -4909
00> -2951
01> -5030
00> -2945
01> -5011
00> -2917
01> -4926
00> -2897
01> -4867
00> -2932
01> -4943
00> -2966
01> -5047
00> -2949
01> -5017
00> -2921
01> -4924
00> -2902
01> -4852
00> -2934
01> -4927
00> -2966
01> -5044
00> -2947
01> -5009
00> -2921
01> -4906
00> -2904
01> -4845
00> -2926
01> -4925
00> -2954
01> -5026
00> -2935
01> -4982
00> -2907
01> -4884
00> -2890
01> -4824
00> -2915
01> -4894
00> -2947
01> -5007
00> -2936
01> -4987
00> -2905
01> -4904
00> -2881
01> -4846
00> -2912
01> -4916
00> -2947
01> -5024
00> -2946
01> -5014
00> -2929
01> -4939
00> -2906
01> -4876
00> -2934
01> -4948
00> -2973
01> -5064
00> -2964
01> -5040

01> -4944
00> -2908
01> -4873
00> -2933
01> -4947
00> -2965
01> -5052
00> -2963
01> -5021
00> -2932
01> -4927
00> -2901
01> -4858
00> -2926
01> -4935
00> -2955
01> -5039
00> -2937
01> -5008
00> -2901
01> -4909
00> -2882
01> -4841
00> -2911
01> -4911
00> -2955
01> -5027
00> -2947
01> -4999
00> -2918
01> -4912
00> -2901
01> -4857
00> -2932
01> -4939
00> -2971
01> -5062
00> -2961
01> -5035
00> -2926
01> -4935
00> -2910
01> -4866
00> -2946
01> -4945
00> -2986
01> -5065
00> -2966
01> -5031
00> -2924
01> -4926
00> -2907
01> -4854
00> -2945
01> -4931
00> -2980
01> -5047
00> -2961
01> -5013
00> -2924
01> -4914
00> -2902
01> -4841
00> -2934
01> -4908
00> -2969
01> -5029
00> -2951
01> -5007
00> -2917
01> -4911
00> -2888
01> -4827
00> -2919
01> -4885
00> -2952
01> -4991
00> -2937
01> -4961
00> -2901
01> -4860
00> -2871
01> -4782
00> -2889
01> -4848
00> -2920
01> -4960
00> -2913
01> -4936
00> -2887
01> -4854
00> -2870
01> -4786
00> -2893
01> -4852
00> -2926
01> -4972
00> -2915
01> -4954
00> -2880
01> -4854
00> -2851
01> -4789
00> -2883
01> -4869
00> -2931
01> -5001
00> -2927
01> -4981
00> -2908
01> -4901
00> -2896
01> -4849
00> -2926
01> -4924
00> -2967
01> -5042
00> -2965
01> -5030
00> -2949
01> -4963
00> -2941
01> -4911
00> -2971
01> -4979
00> -3009
01> -5101
00> -2999
01> -5076
00> -2963
01> -4968
00> -2937
01> -4891
00> -2963
01> -4950
00> -2999
01> -5066
00> -2989
01> -5052
00> -2961
01> -4962
00> -2936
01> -4881
00> -2959
01> -4943
00> -2998
01> -5074
00> -2988
01> -5054
00> -2952
01> -4943
00> -2927
01> -4874
00> -2952
01> -4946
00> -2992
01> -5066
00> -2989
01> -5051
00> -2957
01> -4962
00> -2933
01> -4884
00> -2961
01> -4947
00> -3006
01> -5089
00> -3002
01> -5086
00> -2964
01> -4990
00> -2933
01> -4908
00> -2962
01> -4969
00> -2996
01> -5088
00> -2986
01> -5063
00> -2956
01> -4974
00> -2935
01> -4907
00> -2961
01> -4965
00> -2999
01> -5086
00> -2990
01> -5068
00> -2956
01> -4972
00> -2931
01> -4901
00> -2957
01> -4954
00> -2997
01> -5074
00> -2992
01> -5066
00> -2967
01> -4977
00> -2944
01> -4907
00> -2962
01> -4967
00> -2994
01> -5084
00> -2985
01> -5060
00> -2956
01> -4967
00> -2924
01> -4897
00> -2957
01> -4961
00> -3001
01> -5096
00> -3001
01> -5099
00> -2973
01> -5011
00> -2946
01> -4928
00> -2967
01> -4986
00> -2997
01> -5105
00> -2993
01> -5096
00> -2967
01> -5011
00> -2935
01> -4921
00> -2952
01> -4965
00> -2996
01> -5085
00> -2994
01> -5080
00> -2957
01> -4981
00> -2922
01> -4887
00> -2935
01> -4932
00> -2982
01> -5066
00> -2982
01> -5058
00> -2947
01> -4955
00> -2913
01> -4866
00> -2925
01> -4917
00> -2961
01> -5042
00> -2956
01> -5039
00> -2921
01> -4942
00> -2892
01> -4861
00> -2912
01> -4917
00> -2957
01> -5046
00> -2951
01> -5047
00> -2924
01> -4966
00> -2899
01> -4891
00> -2919
01> -4946
00> -2956
01> -5071
00> -2956
01> -5071
00> -2930
01> -4984
00> -2904
01> -4916
00> -2919
01> -4970
00> -2959
01> -5086
00> -2961
01> -5078
00> -2946
01> -4999
00> -2931
01> -4936
00> -2957
01> -4999
00> -2992
01> -5117
00> -2989
01> -5114
00> -2961
01> -5024
00> -2931
01> -4948
00> -2961
01> -5007
00> -3009
01> -5142
00> -3009
01> -5136
00> -2974
01> -5046
00> -2936
01> -4954
00> -2960
01> -4996
00> -2999
01> -5119
00> -2995
01> -5119
00> -2967
01> -5023
00> -2943
01> -4944
00> -2962
01> -4993
00> -2997
01> -5113
00> -2982
01> -5098
00> -2946
01> -4997
00> -2924
01> -4920
00> -2946
01> -4971
00> -2984
01> -5104
00> -2982
01> -5104
00> -2955
01> -5019
00> -2920
01> -4934
00> -2940
01> -4971
00> -2981
01> -5098
00> -2975
01> -5101
00> -2947
01> -5014
00> -2921
01> -4934
00> -2947
01> -4977
00> -2993
01> -5109
00> -2989
01> -5109
00> -2961
01> -5024
00> -2944
01> -4942
00> -2963
01> -4988
00> -3004
01> -5121
00> -3008
01> -5131
00> -2979
01> -5040
00> -2949
01> -4962
00> -2969
01> -5007
00> -2999
01> -5128
00> -2991
01> -5122
00> -2960
01> -5026
00> -2934
01> -4951
00> -2964
01> -5006
00> -3012
01> -5141
00> -3013
01> -5146
00> -2984
01> -5059
00> -2964
01> -4984
00> -2981
01> -5028
00> -3024
01> -5161
00> -3023
01> -5165
00> -2988
01> -5068
00> -2949
01> -4976
00> -2964
01> -5011
00> -3012
01> -5145
00> -3007
01> -5142
00> -2982
01> -5064
00> -2959
01> -4981
00> -2972
01> -5013
00> -3009
01> -5129
00> -3004
01> -5126
00> -2966
01> -5028
00> -2933
01> -4947
00> -2944
01> -4981
00> -2985
01> -5111
00> -2985
01> -5124
00> -2966
01> -5050
00> -2936
01> -4967
00> -2949
01> -4994
00> -2991
01> -5127
00> -2993
01> -5137
00> -2966
01> -5049
00> -2937
01> -4966
00> -2957
01> -5007
00> -2996
01> -5122
00> -2997
01> -5123
00> -2977
01> -5050
00> -2949
01> -4981
00> -2956
01> -5019
00> -2991
01> -5127
00> -2983
01> -5122
00> -2952
01> -5024
00> -2926
01> -4934
00> -2944
01> -4970
00> -2988
01> -5105
00> -2990
01> -5114
00> -2962
01> -5032
00> -2933
01> -4954
00> -2947
01> -4984
00> -2986
01> -5102
00> -2985
01> -5108
00> -2964
01> -5026
00> -2936
01> -4949
00> -2951
01> -4989
00> -2991
01> -5122
00> -2991
01> -5131
00> -2967
01> -5042
00> -2933
01> -4959
00> -2950
01> -4990
00> -2994
01> -5112
00> -2994
01> -5122
00> -2964
01> -5038
00> -2932
01> -4955
00> -2937
01> -4986
00> -2976
01> -5107
00> -2974
01> -5112
00> -2941
01> -5008
00> -2906
01> -4908
00> -2920
01> -4939
00> -2964
01> -5058
00> -2963
01> -5064
00> -2927
01> -4977
00> -2893
01> -4876
00> -2897
01> -4891
00> -2925
01> -5013
00> -2922
01> -5029
00> -2904
01> -4951
00> -2877
01> -4873
00> -2886
01> -4900
00> -2925
01> -5029
00> -2931
01> -5052
00> -2906
01> -4974
00> -2882
01> -4891
00> -2901
01> -4922
00> -2943
01> -5052
00> -2942
01> -5067
00> -2911
01> -4982
00> -2876
01> -4894
00> -2892
01> -4927
00> -2937
01> -5057
00> -2935
01> -5064
00> -2902
01> -4974
00> -2879
01> -4890
00> -2897
01> -4916
00> -2942
01> -5041
00> -2944
01> -5056
00> -2916
01> -4969
00> -2882
01> -4874
00> -2896
01> -4891
00> -2949
01> -5024
00> -2951
01> -5047
00> -2920
01> -4969
00> -2892
01> -4886
00> -2902
01> -4914
00> -2946
01> -5054
00> -2949
01> -5069
00> -2919
01> -4983
00> -2892
01> -4893
00> -2902
01> -4917
00> -2953
01> -5052
00> -2967
01> -5070
00> -2945
01> -4983
00> -2921
01> -4907
00> -2934
01> -4937
00> -2982
01> -5082
00> -2989
01> -5107
00> -2961
01> -5019
00> -2928
01> -4915
00> -2939
01> -4929
00> -2978
01> -5064
00> -2980
01> -5087
00> -2954
01> -5003
00> -2925
01> -4912
00> -2932
01> -4927
00> -2979
01> -5056
00> -2986
01> -5087
00> -2952
01> -5010
00> -2923
01> -4923
00> -2938
01> -4936
00> -2987
01> -5072
00> -2994
01> -5104
00> -2968
01> -5016
00> -2936
01> -4926
00> -2949
01> -4954
00> -2996
01> -5098
00> -2997
01> -5118
00> -2968
01> -5026
00> -2939
01> -4932
00> -2946
01> -4950
00> -2989
01> -5078
00> -2993
01> -5107
00> -2968
01> -5032
00> -2940
01> -4948
00> -2947
01> -4962
00> -2996
01> -5089
00> -3011
01> -5122
00> -2999
01> -5057
00> -2974
01> -4982
00> -2989
01> -5000
00> -3029
01> -5129
00> -3029
01> -5152
00> -3001
01> -5058
00> -2961
01> -4957
00> -2969
01> -4962
00> -3022
01> -5101
00> -3036
01> -5146
00> -3016
01> -5070
00> -2981
01> -4972
00> -2989
01> -4989
00> -3030
01> -5113
00> -3028
01> -5141
00> -2996
01> -5063
00> -2967
01> -4977
00> -2972
01> -4983
00> -3014
01> -5105
00> -3022
01> -5132
00> -2995
01> -5051
00> -2961
01> -4956
00> -2962
01> -4959
00> -3009
01> -5093
00> -3013
01> -5127
00> -2988
01> -5045
00> -2956
01> -4959
00> -2966
01> -4978
00> -3005
01> -5104
00> -3014
01> -5134
00> -2996
01> -5057
00> -2964
01> -4971
00> -2967
01> -4980
00> -3009
01> -5101
00> -3005
01> -5124
00> -2975
01> -5030
00> -2952
01> -4936
00> -2956
01> -4944
00> -2998
01> -5076
00> -3007
01> -5102
00> -2974
01> -5014
00> -2947
01> -4926
00> -2955
01> -4946
00> -2993
01> -5077
00> -2996
01> -5111
00> -2967
01> -5026
00> -2934
01> -4927
00> -2942
01> -4926
00> -2979
01> -5047
00> -2989
01> -5081
00> -2965
01> -5006
00> -2929
01> -4915
00> -2939
01> -4931
00> -2987
01> -5071
00> -2990
01> -5104
00> -2960
01> -5027
00> -2939
01> -4944
00> -2949
01> -4947
00> -2990
01> -5067
00> -2999
01> -5111
00> -2971
01> -5037
00> -2940
01> -4944
00> -2944
01> -4950
00> -2984
01> -5074
00> -2992
01> -5102
00> -2964
01> -5022
00> -2931
01> -4923
00> -2933
01> -4921
00> -2964
01> -5033
00> -2963
01> -5049
00> -2929
01> -4961
00> -2895
01> -4862
00> -2895
01> -4861
00> -2942
01> -4992
00> -2957
01> -5029
00> -2931
01> -4957
00> -2892
01> -4876
00> -2896
01> -4884
00> -2939
01> -5009
00> -2944
01> -5042
00> -2930
01> -4975
00> -2913
01> -4906
00> -2921
01> -4923
00> -2964
01> -5057
00> -2972
01> -5084
00> -2949
01> -5004
00> -2923
01> -4914
00> -2927
01> -4921
00> -2969
01> -5052
00> -2972
01> -5084
00> -2944
01> -5002
00> -2916
01> -4924
00> -2932
01> -4942
00> -2982
01> -5077
00> -2989
01> -5116
00> -2967
01> -5032
00> -2933
01> -4939
00> -2940
01> -4952
00> -2978
01> -5087
00> -2986
01> -5119
00> -2961
01> -5038
00> -2934
01> -4956
00> -2934
01> -4950
00> -2976
01> -5067
00> -2993
01> -5112
00> -2976
01> -5054
00> -2948
01> -4964
00> -2947
01> -4958
00> -2990
01> -5081
00> -2996
01> -5108
00> -2967
01> -5026
00> -2936
01> -4934
00> -2939
01> -4937
00> -2982
01> -5064
00> -2991
01> -5103
00> -2971
01> -5027
00> -2942
01> -4942
00> -2940
01> -4937
00> -2977
01> -5054
00> -2984
01> -5095
00> -2959
01> -5019
00> -2933
01> -4930
00> -2942
01> -4936
00> -2989
01> -5064
00> -2992
01> -5104
00> -2956
01> -5018
00> -2924
01> -4923
00> -2921
01> -4919
00> -2955
01> -5041
00> -2963
01> -5086
00> -2946
01> -5031
00> -2917
01> -4951
00> -2927
01> -4949
00> -2971
01> -5066
00> -2979
01> -5103
00> -2958
01> -5032
00> -2931
01> -4945
00> -2934
01> -4952
00> -2976
01> -5083
00> -2986
01> -5122
00> -2956
01> -5034
00> -2926
01> -4942
00> -2930
01> -4950
00> -2979
01> -5092
00> -2994
01> -5147
00> -2973
01> -5073
00> -2940
01> -4989
00> -2940
01> -4988
00> -2981
01> -5109
00> -2987
01> -5155
00> -2964
01> -5082
00> -2934
01> -4991
00> -2926
01> -4974
00> -2971
01> -5097
00> -2985
01> -5147
00> -2963
01> -5076
00> -2936
01> -4986
00> -2929
01> -4973
00> -2963
01> -5082
00> -2971
01> -5119
00> -2938
01> -5035
00> -2901
01> -4930
00> -2904
01> -4919
00> -2954
01> -5052
00> -2962
01> -5092
00> -2931
01> -5011
00> -2897
01> -4914
00> -2893
01> -4906
00> -2939
01> -5045
00> -2951
01> -5091
00> -2920
01> -5009
00> -2886
01> -4922
00> -2892
01> -4917
00> -2936
01> -5051
00> -2941
01> -5099
00> -2916
01> -5033
00> -2888
01> -4947
00> -2888
01> -4927
00> -2941
01> -5057
00> -2964
01> -5112
00> -2944
01> -5051
00> -2907
01> -4961
00> -2907
01> -4934
00> -2951
01> -5051
00> -2962
01> -5099
00> -2943
01> -5031
00> -2924
01> -4953
00> -2922
01> -4944
00> -2964
01> -5055
00> -2974
01> -5106
00> -2955
01> -5042
00> -2929
01> -4957
00> -2919
01> -4948
00> -2967
01> -5075
00> -2987
01> -5135
00> -2961
01> -5062
00> -2929
01> -4964
00> -2921
01> -4945
00> -2961
01> -5061
00> -2967
01> -5109
00> -2948
01> -5046
00> -2921
01> -4962
00> -2913
01> -4947
00> -2952
01> -5065
00> -2964
01> -5123
00> -2926
01> -5043
00> -2891
01> -4939
00> -2890
01> -4915
00> -2927
01> -5027
00> -2937
01> -5072
00> -2912
01> -4995
00> -2870
01> -4896
00> -2849
01> -4873
00> -2877
01> -4995
00> -2883
01> -5051
00> -2852
01> -4983
00> -2811
01> -4898
00> -2801
01> -4887
00> -2836
01> -5017
00> -2851
01> -5077
00> -2827
01> -5012
00> -2798
01> -4921
00> -2796
01> -4905
00> -2840
01> -5031
00> -2862
01> -5100
00> -2839
01> -5031
00> -2808
01> -4946
00> -2797
01> -4920
00> -2824
01> -5026
00> -2822
01> -5062
00> -2793
01> -4984
00> -2769
01> -4904
00> -2767
01> -4876
00> -2807
01> -4985
00> -2819
01> -5036
00> -2787
01> -4959
00> -2758
01> -4874
00> -2763
01> -4864
00> -2811
01> -4994
00> -2827
01> -5054
00> -2815
01> -4987
00> -2787
01> -4899
00> -2789
01> -4881
00> -2837
01> -5011
00> -2857
01> -5086
00> -2837
01> -5024
00> -2813
01> -4932
00> -2810
01> -4904
00> -2852
01> -5012
00> -2861
01> -5064
00> -2839
01> -5003
00> -2824
01> -4929
00> -2824
01> -4911
00> -2866
01> -5027
00> -2884
01> -5097
00> -2866
01> -5029
00> -2832
01> -4928
00> -2833
01> -4903
00> -2876
01> -5023
00> -2895
01> -5094
00> -2875
01> -5030
00> -2842
01> -4929
00> -2838
01> -4902
00> -2880
01> -5022
00> -2902
01> -5092
00> -2884
01> -5029
00> -2864
01> -4948
00> -2868
01> -4927
00> -2914
01> -5055
00> -2929
01> -5125
00> -2909
01> -5066
00> -2876
01> -4972
00> -2864
01> -4940
00> -2902
01> -5054
00> -2920
01> -5122
00> -2892
01> -5065
00> -2857
01> -4974
00> -2849
01> -4946
00> -2895
01> -5069
00> -2919
01> -5144
00> -2899
01> -5074
00> -2862
01> -4983
00> -2859
01> -4959
00> -2906
01> -5072
00> -2923
01> -5136
00> -2899
01> -5064
00> -2866
01> -4968
00> -2864
01> -4940
00> -2903
01> -5061
00> -2923
01> -5137
00> -2904
01> -5078
00> -2872
01> -4992
00> -2865
01> -4962
00> -2904
01> -5071
00> -2934
01> -5142
00> -2911
01> -5084
00> -2882
01> -4996
00> -2877
01> -4976
00> -2913
01> -5088
00> -2936
01> -5157
00> -2916
01> -5090
00> -2885
01> -4989
00> -2877
01> -4959
00> -2918
01> -5072
00> -2940
01> -5147
00> -2924
01> -5089
00> -2891
01> -4989
00> -2877
01> -4956
00> -2921
01> -5077
00> -2941
01> -5148
00> -2919
01> -5089
00> -2887
01> -4990
00> -2881
01> -4961
00> -2920
01> -5078
00> -2940
01> -5151
00> -2925
01> -5091
00> -2894
01> -5006
00> -2886
01> -4976
00> -2924
01> -5089
00> -2946
01> -5161
00> -2931
01> -5106
00> -2899
01> -5015
00> -2889
01> -4973
00> -2922
01> -5077
00> -2935
01> -5142
00> -2917
01> -5087
00> -2893
01> -5004
00> -2893
01> -4982
00> -2939
01> -5099
00> -2951
01> -5162
00> -2921
01> -5094
00> -2886
01> -4996
00> -2876
01> -4960
00> -2912
01> -5066
00> -2930
01> -5132
00> -2909
01> -5066
00> -2880
01> -4972
00> -2874
01> -4944
00> -2910
01> -5065
00> -2923
01> -5143
00> -2901
01> -5081
00> -2874
01> -4987
00> -2859
01> -4939
00> -2899
01> -5048
00> -2926
01> -5124
00> -2905
01> -5057
00> -2869
01> -4956
00> -2855
01> -4923
00> -2891
01> -5031
00> -2906
01> -5104
00> -2894
01> -5052
00> -2861
01> -4958
00> -2849
01> -4921
00> -2891
01> -5042
00> -2914
01> -5131
00> -2895
01> -5067
00> -2870
01> -4966
00> -2859
01> -4929
00> -2897
01> -5042
00> -2914
01> -5117
00> -2888
01> -5059
00> -2867
01> -4979
00> -2869
01> -4957
00> -2912
01> -5071
00> -2937
01> -5147
00> -2917
01> -5083
00> -2887
01> -4986
00> -2873
01> -4939
00> -2907
01> -5037
00> -2929
01> -5110
00> -2911
01> -5052
00> -2874
01> -4966
00> -2860
01> -4927
00> -2900
01> -5031
00> -2919
01> -5099
00> -2897
01> -5032
00> -2864
01> -4932
00> -2854
01> -4891
00> -2897
01> -5005
00> -2922
01> -5087
00> -2900
01> -5032
00> -2866
01> -4942
00> -2864
01> -4918
00> -2907
01> -5039
00> -2922
01> -5114
00> -2900
01> -5051
00> -2868
01> -4964
00> -2860
01> -4929
00> -2909
01> -5050
00> -2936
01> -5134
00> -2916
01> -5073
00> -2895
01> -4987
00> -2887
01> -4945
00> -2923
01> -5050
00> -2949
01> -5124
00> -2928
01> -5066
00> -2889
01> -4977
00> -2876
01> -4938
00> -2917
01> -5048
00> -2947
01> -5128
00> -2924
01> -5071
00> -2889
01> -4973
00> -2873
01> -4918
00> -2911
01> -5020
00> -2936
01> -5111
00> -2921
01> -5065
00> -2891
01> -4972
00> -2877
01> -4922
00> -2910
01> -5021
00> -2939
01> -5107
00> -2921
01> -5057
00> -2887
01> -4965
00> -2874
01> -4926
00> -2915
01> -5041
00> -2935
01> -5121
00> -2916
01> -5062
00> -2893
01> -4975
00> -2882
01> -4932
00> -2909
01> -5030
00> -2935
01> -5114
00> -2912
01> -5059
00> -2882
01> -4961
00> -2873
01> -4922
00> -2916
01> -5039
00> -2950
01> -5134
00> -2934
01> -5088
00> -2898
01> -4999
00> -2886
01> -4950
00> -2924
01> -5055
00> -2954
01> -5151
00> -2933
01> -5091
00> -2891
01> -4981
00> -2869
01> -4917
00> -2911
01> -5027
00> -2946
01> -5143
00> -2930
01> -5102
00> -2896
01> -5002
00> -2879
01> -4946
00> -2915
01> -5043
00> -2935
01> -5129
00> -2917
01> -5071
00> -2881
01> -4964
00> -2871
01> -4919
00> -2912
01> -5029
00> -2951
01> -5127
00> -2938
01> -5081
00> -2913
01> -4991
00> -2909
01> -4946
00> -2957
01> -5054
00> -2994
01> -5151
00> -2986
01> -5116
00> -2954
01> -5026
00> -2939
01> -4969
00> -2974
01> -5062
00> -3003
01> -5157
00> -2990
01> -5114
00> -2964
01> -5016
00> -2956
01> -4969
00> -2997
01> -5073
00> -3017
01> -5158
00> -2986
01> -5092
00> -2954
01> -4997
00> -2949
01> -4957
00> -2991
01> -5068
00> -3019
01> -5160
00> -3002
01> -5110
00> -2969
01> -5002
00> -2949
01> -4944
00> -2996
01> -5047
00> -3034
01> -5151
00> -3021
01> -5117
00> -2983
01> -5023
00> -2961
01> -4968
00> -2992
01> -5059
00> -3017
01> -5152
00> -2997
01> -5107
00> -2964
01> -5014
00> -2953
01> -4972
00> -2991
01> -5074
00> -3026
01> -5169
00> -3006
01> -5117
00> -2967
01> -5004
00> -2945
01> -4941
00> -2986
01> -5033
00> -3026
01> -5144
00> -3016
01> -5116
00> -2982
01> -5019
00> -2960
01> -4957
00> -2986
01> -5041
00> -3004
01> -5131
00> -2985
01> -5074
00> -2951
01> -4974
00> -2942
01> -4927
00> -2981
01> -5031
00> -3011
01> -5127
00> -3000
01> -5085
00> -2974
01> -4999
00> -2960
01> -4954
00> -2997
01> -5052
00> -3030
01> -5151
00> -3016
01> -5111
00> -2988
01> -5012
00> -2984
01> -4967
00> -3021
01> -5071
00> -3052
01> -5176
00> -3038
01> -5130
00> -3005
01> -5033
00> -2985
01> -4973
00> -3016
01> -5064
00> -3046
01> -5162
00> -3036
01> -5124
00> -3007
01> -5032
00> -2991
01> -4971
00> -3018
01> -5056
00> -3046
01> -5164
00> -3032
01> -5122
00> -2994
01> -5018
00> -2971
01> -4956
00> -3007
01> -5046
00> -3035
01> -5152
00> -3021
01> -5114
00> -3000
01> -5033
00> -2987
01> -4989
00> -3022
01> -5087
00> -3052
01> -5188
00> -3036
01> -5145
00> -2999
01> -5049
00> -2980
01> -4997
00> -3022
01> -5094
00> -3051
01> -5189
00> -3029
01> -5137
00> -2994
01> -5043
00> -2976
01> -4991
00> -3011
01> -5087
00> -3034
01> -5184
00> -3013
01> -5136
00> -2979
01> -5037
00> -2960
01> -4986
00> -2990
01> -5069
00> -3007
01> -5161
00> -2983
01> -5116
00> -2937
01> -5016
00> -2910
01> -4952
00> -2946
01> -5049
00> -2974
01> -5159
00> -2949
01> -5111
00> -2919
01> -5014
00> -2899
01> -4960
00> -2933
01> -5055
00> -2962
01> -5162
00> -2947
01> -5132
00> -2918
01> -5035
00> -2901
01> -4974
00> -2939
01> -5067
00> -2975
01> -5167
00> -2961
01> -5125
00> -2934
01> -5029
00> -2919
01> -4979
00> -2954
01> -5082
00> -2982
01> -5187
00> -2967
01> -5149
00> -2932
01> -5062
00> -2910
01> -5000
00> -2941
01> -5083
00> -2974
01> -5181
00> -2959
01> -5131
00> -2926
01> -5036
00> -2909
01> -4979
00> -2947
01> -5072
00> -2986
01> -5179
00> -2975
01> -5143
00> -2942
01> -5055
00> -2922
01> -4990
00> -2961
01> -5077
00> -3002
01> -5194
00> -3001
01> -5172
00> -2971
01> -5079
00> -2956
01> -5016
00> -2991
01> -5101
00> -3021
01> -5209
00> -3007
01> -5168
00> -2977
01> -5065
00> -2966
01> -5009
00> -3001
01> -5097
00> -3034
01> -5204
00> -3020
01> -5170
00> -2984
01> -5073
00> -2962
01> -5006
00> -2990
01> -5085
00> -3014
01> -5183
00> -2997
01> -5145
00> -2966
01> -5049
00> -2947
01> -4982
00> -2979
01> -5074
00> -3021
01> -5191
00> -3013
01> -5160
00> -2979
01> -5069
00> -2962
01> -5007
00> -2998
01> -5096
00> -3034
01> -5211
00> -3017
01> -5169
00> -2987
01> -5065
00> -2974
01> -5004
00> -3004
01> -5096
00> -3036
01> -5211
00> -3024
01> -5172
00> -2991
01> -5074
00> -2969
01> -5007
00> -2994
01> -5089
00> -3029
01> -5209
00> -3011
01> -5162
00> -2979
01> -5071
00> -2959
01> -5009
00> -2988
01> -5076
00> -3015
01> -5175
00> -2996
01> -5134
00> -2967
01> -5040
00> -2941
01> -4969
00> -2967
01> -5051
00> -2997
01> -5156
00> -2982
01> -5117
00> -2946
01> -5022
00> -2934
01> -4969
00> -2972
01> -5062
00> -3007
01> -5183
00> -3001
01> -5159
00> -2966
01> -5060
00> -2936
01> -4992
00> -2962
01> -5070
00> -2999
01> -5186
00> -2991
01> -5161
00> -2959
01> -5069
00> -2937
01> -4998
00> -2962
01> -5065
00> -2991
01> -5162
00> -2974
01> -5121
00> -2946
01> -5029
00> -2923
01> -4963
00> -2947
01> -5031
00> -2981
01> -5132
00> -2973
01> -5096
00> -2939
01> -5004
00> -2917
01> -4927
00> -2943
01> -4992
00> -2967
01> -5100
00> -2948
01> -5072
00> -2909
01> -4987
00> -2883
01> -4929
00> -2906
01> -5010
00> -2942
01> -5136
00> -2936
01> -5129
00> -2907
01> -5051
00> -2889
01> -4989
00> -2919
01> -5070
00> -2947
01> -5189
00> -2936
01> -5157
00> -2900
01> -5054
00> -2871
01> -4982
00> -2899
01> -5072
00> -2938
01> -5195
00> -2922
01> -5169
00> -2884
01> -5070
00> -2856
01> -4992
00> -2869
01> -5058
00> -2901
01> -5167
00> -2890
01> -5132
00> -2852
01> -5032
00> -2821
01> -4957
00> -2838
01> -5018
00> -2864
01> -5117
00> -2844
01> -5077
00> -2801
01> -4976
00> -2766
01> -4901
00> -2793
01> -4977
00> -2834
01> -5100
00> -2832
01> -5081
00> -2801
01> -4992
00> -2777
01> -4920
00> -2811
01> -4991
00> -2852
01> -5114
00> -2844
01> -5097
00> -2819
01> -5016
00> -2800
01> -4949
00> -2825
01> -5021
00> -2867
01> -5144
00> -2871
01> -5120
00> -2852
01> -5034
00> -2836
01> -4967
00> -2872
01> -5050
00> -2916
01> -5182
00> -2909
01> -5168
00> -2872
01> -5068
00> -2842
01> -4984
00> -2871
01> -5051
00> -2920
01> -5178
00> -2916
01> -5156
00> -2886
01> -5064
00> -2869
01> -5011
00> -2900
01> -5086
00> -2931
01> -5188
00> -2914
01> -5146
00> -2885
01> -5059
00> -2859
01> -4996
00> -2887
01> -5067
00> -2929
01> -5187
00> -2927
01> -5167
00> -2901
01> -5069
00> -2892
01> -5009
00> -2929
01> -5077
00> -2971
01> -5184
00> -2969
01> -5166
00> -2949
01> -5080
00> -2933
01> -5006
00> -2965
01> -5067
00> -3012
01> -5190
00> -3019
01> -5177
00> -2994
01> -5097
00> -2972
01> -5030
00> -3001
01> -5097
00> -3040
01> -5211
00> -3032
01> -5191
00> -3005
01> -5099
00> -2986
01> -5038
00> -3020
01> -5112
00> -3054
01> -5229
00> -3047
01> -5208
00> -3013
01> -5106
00> -2991
01> -5030
00> -3019
01> -5100
00> -3057
01> -5215
00> -3046
01> -5193
00> -3015
01> -5105
00> -2988
01> -5029
00> -3009
01> -5092
00> -3047
01> -5213
00> -3039
01> -5184
00> -3006
01> -5081
00> -2983
01> -4997
00> -3010
01> -5056
00> -3048
01> -5184
00> -3044
01> -5177
00> -3016
01> -5096
00> -2992
01> -5027
00> -3016
01> -5084
00> -3059
01> -5211
00> -3064
01> -5216
00> -3031
01> -5124
00> -3002
01> -5055
00> -3026
01> -5118
00> -3062
01> -5239
00> -3049
01> -5211
00> -3019
01> -5117
00> -3002
01> -5052
00> -3024
01> -5110
00> -3061
01> -5232
00> -3057
01> -5217
00> -3016
01> -5112
00> -2979
01> -5022
00> -2999
01> -5072
00> -3039
01> -5192
00> -3032
01> -5164
00> -2993
01> -5052
00> -2962
01> -4967
00> -2987
01> -5022
00> -3025
01> -5138
00> -3011
01> -5116
00> -2976
01> -5011
00> -2946
01> -4937
00> -2971
01> -5004
00> -3007
01> -5136
00> -2990
01> -5131
00> -2954
01> -5044
00> -2924
01> -4972
00> -2945
01> -5049
00> -2983
01> -5192
00> -2974
01> -5187
00> -2939
01> -5099
00> -2911
01> -5031
00> -2945
01> -5112
00> -2993
01> -5252
00> -2989
01> -5242
00> -2955
01> -5142
00> -2929
01> -5067
00> -2951
01> -5129
00> -2983
01> -5241
00> -2974
01> -5228
00> -2939
01> -5130
00> -2910
01> -5044
00> -2924
01> -5091
00> -2952
01> -5202
00> -2946
01> -5193
00> -2919
01> -5112
00> -2895
01> -5044
00> -2917
01> -5107
00> -2957
01> -5239
00> -2957
01> -5229
00> -2922
01> -5137
00> -2894
01> -5054
00> -2916
01> -5106
00> -2967
01> -5236
00> -2964
01> -5237
00> -2931
01> -5147
00> -2896
01> -5059
00> -2910
01> -5113
00> -2948
01> -5229
00> -2942
01> -5209
00> -2922
01> -5114
00> -2894
01> -5029
00> -2919
01> -5078
00> -2966
01> -5201
00> -2970
01> -5191
00> -2943
01> -5094
00> -2922
01> -5008
00> -2954
01> -5066
00> -2996
01> -5191
00> -2992
01> -5175
00> -2969
01> -5087
00> -2948
01> -5011
00> -2972
01> -5069
00> -3016
01> -5196
00> -3016
01> -5187
00> -2991
01> -5101
00> -2967
01> -5030
00> -2995
01> -5088
00> -3044
01> -5216
00> -3040
01> -5222
00> -3012
01> -5140
00> -2982
01> -5062
00> -2998
01> -5099
00> -3034
01> -5212
00> -3035
01> -5202
00> -3006
01> -5109
00> -2979
01> -5036
00> -3001
01> -5091
00> -3037
01> -5216
00> -3032
01> -5212
00> -3008
01> -5125
00> -2984
01> -5044
00> -3005
01> -5094
00> -3048
01> -5224
00> -3044
01> -5224
00> -3018
01> -5147
00> -2994
01> -5076
00> -3012
01> -5122
00> -3051
01> -5246
00> -3046
01> -5237
00> -3019
01> -5146
00> -2990
01> -5059
00> -3006
01> -5107
00> -3044
01> -5233
00> -3041
01> -5231
00> -3015
01> -5145
00> -2989
01> -5066
00> -3011
01> -5108
00> -3046
01> -5223
00> -3037
01> -5211
00> -3009
01> -5128
00> -2982
01> -5056
00> -2997
01> -5093
00> -3029
01> -5204
00> -3023
01> -5197
00> -2993
01> -5116
00> -2961
01> -5042
00> -2984
01> -5089
00> -3034
01> -5219
00> -3039
01> -5224
00> -3009
01> -5142
00> -2975
01> -5048
00> -2986
01> -5083
00> -3037
01> -5228
00> -3039
01> -5241
00> -3012
01> -5152
00> -2992
01> -5081
00> -3015
01> -5124
00> -3054
01> -5249
00> -3057
01> -5252
00> -3025
01> -5154
00> -2992
01> -5069
00> -3005
01> -5109
00> -3042
01> -5229
00> -3040
01> -5226
00> -3011
01> -5130
00> -2982
01> -5044
00> -2993
01> -5079
00> -3032
01> -5202
00> -3024
01> -5203
00> -2991
01> -5117
00> -2966
01> -5036
00> -2983
01> -5074
00> -3024
01> -5207
00> -3026
01> -5214
00> -2999
01> -5125
00> -2971
01> -5039
00> -2992
01> -5086
00> -3039
01> -5214
00> -3033
01> -5209
00> -2999
01> -5111
00> -2979
01> -5038
00> -3004
01> -5088
00> -3046
01> -5224
00> -3047
01> -5222
00> -3011
01> -5123
00> -2974
01> -5035
00> -2996
01> -5072
00> -3043
01> -5201
00> -3040
01> -5205
00> -3005
01> -5114
00> -2968
01> -5028
00> -2987
01> -5069
00> -3031
01> -5199
00> -3034
01> -5204
00> -3008
01> -5112
00> -2977
01> -5036
00> -3000
01> -5089
00> -3046
01> -5225
00> -3043
01> -5237
00> -3017
01> -5149
00> -2989
01> -5053
00> -3000
01> -5086
00> -3049
01> -5220
00> -3057
01> -5236
00> -3035
01> -5156
00> -3008
01> -5079
00> -3025
01> -5117
00> -3061
01> -5237
00> -3054
01> -5231
00> -3022
01> -5134
00> -2994
01> -5052
00> -3009
01> -5091
00> -3054
01> -5221
00> -3066
01> -5235
00> -3034
01> -5149
00> -3001
01> -5058
00> -3012
01> -5092
00> -3056
01> -5226
00> -3062
01> -5238
00> -3028
01> -5147
00> -2999
01> -5064
00> -3012
01> -5101
00> -3055
01> -5224
00> -3057
01> -5227
00> -3026
01> -5131
00> -2992
01> -5036
00> -3009
01> -5076
00> -3059
01> -5222
00> -3065
01> -5238
00> -3033
01> -5146
00> -3006
01> -5065
00> -3017
01> -5100
00> -3059
01> -5230
00> -3063
01> -5237
00> -3025
01> -5139
00> -2995
01> -5046
00> -3012
01> -5081
00> -3051
01> -5214
00> -3048
01> -5222
00> -3020
01> -5136
00> -2994
01> -5047
00> -3011
01> -5081
00> -3054
01> -5219
00> -3055
01> -5236
00> -3026
01> -5147
00> -2997
01> -5054
00> -3006
01> -5074
00> -3042
01> -5201
00> -3050
01> -5221
00> -3027
01> -5151
00> -2999
01> -5069
00> -3011
01> -5102
00> -3053
01> -5226
00> -3049
01> -5229
00> -3017
01> -5142
00> -2989
01> -5052
00> -3001
01> -5077
00> -3049
01> -5216
00> -3051
01> -5225
00> -3014
01> -5122
00> -2978
01> -5032
00> -2987
01> -5062
00> -3034
01> -5212
00> -3039
01> -5238
00> -3014
01> -5151
00> -2991
01> -5062
00> -3006
01> -5096
00> -3045
01> -5236
00> -3048
01> -5252
00> -3027
01> -5167
00> -2999
01> -5087
00> -3018
01> -5119
00> -3059
01> -5241
00> -3056
01> -5238
00> -3019
01> -5137
00> -2989
01> -5040
00> -3009
01> -5072
00> -3059
01> -5218
00> -3051
01> -5232
00> -3019
01> -5132
00> -3000
01> -5046
00> -3014
01> -5076
00> -3061
01> -5216
00> -3064
01> -5231
00> -3027
01> -5133
00> -2994
01> -5047
00> -3004
01> -5077
00> -3045
01> -5212
00> -3048
01> -5234
00> -3021
01> -5147
00> -2997
01> -5057
00> -3014
01> -5079
00> -3059
01> -5216
00> -3064
01> -5241
00> -3039
01> -5164
00> -3007
01> -5079
00> -3009
01> -5094
00> -3056
01> -5225
00> -3066
01> -5251
00> -3032
01> -5161
00> -2998
01> -5056
00> -3004
01> -5063
00> -3049
01> -5192
00> -3050
01> -5202
00> -3020
01> -5118
00> -2990
01> -5027
00> -2994
01> -5032
00> -3026
01> -5150
00> -3026
01> -5166
00> -2984
01> -5059
00> -2941
01> -4956
00> -2951
01> -4991
00> -2994
01> -5135
00> -2997
01> -5165
00> -2968
01> -5094
00> -2942
01> -5016
00> -2949
01> -5045
00> -2984
01> -5178
00> -2986
01> -5202
00> -2958
01> -5121
00> -2924
01> -5036
00> -2931
01> -5071
00> -2986
01> -5224
00> -2996
01> -5257
00> -2970
01> -5186
00> -2936
01> -5107
00> -2937
01> -5116
00> -2967
01> -5235
00> -2979
01> -5270
00> -2952
01> -5186
00> -2929
01> -5111
00> -2946
01> -5149
00> -2990
01> -5291
00> -2997
01> -5324
00> -2963
01> -5234
00> -2924
01> -5134
00> -2931
01> -5138
00> -2973
01> -5269
00> -2983
01> -5304
00> -2965
01> -5221
00> -2945
01> -5136
00> -2954
01> -5172
00> -2995
01> -5309
00> -3002
01> -5335
00> -2974
01> -5249
00> -2942
01> -5155
00> -2951
01> -5168
00> -2993
01> -5289
00> -2999
01> -5307
00> -2972
01> -5218
00> -2938
01> -5131
00> -2942
01> -5154
00> -2982
01> -5270
00> -2984
01> -5286
00> -2951
01> -5190
00> -2919
01> -5096
00> -2935
01> -5121
00> -2979
01> -5262
00> -2984
01> -5290
00> -2955
01> -5201
00> -2923
01> -5113
00> -2929
01> -5134
00> -2971
01> -5261
00> -2977
01> -5287
00> -2954
01> -5214
00> -2925
01> -5126
00> -2938
01> -5152
00> -2987
01> -5293
00> -2991
01> -5319
00> -2959
01> -5226
00> -2924
01> -5127
00> -2936
01> -5152
00> -2989
01> -5293
00> -2996
01> -5310
00> -2971
01> -5214
00> -2937
01> -5119
00> -2940
01> -5131
00> -2984
01> -5261
00> -2994
01> -5296
00> -2977
01> -5222
00> -2945
01> -5138
00> -2952
01> -5154
00> -2999
01> -5286
00> -3004
01> -5314
00> -2972
01> -5236
00> -2941
01> -5151
00> -2951
01> -5169
00> -2996
01> -5306
00> -3005
01> -5337
00> -2979
01> -5260
00> -2948
01> -5172
00> -2961
01> -5179
00> -3014
01> -5319
00> -3032
01> -5359
00> -3009
01> -5274
00> -2974
01> -5178
00> -2978
01> -5181
00> -3017
01> -5301
00> -3018
01> -5323
00> -2987
01> -5240
00> -2959
01> -5155
00> -2962
01> -5166
00> -3004
01> -5292
00> -3007
01> -5316
00> -2977
01> -5236
00> -2946
01> -5142
00> -2956
01> -5149
00> -3000
01> -5281
00> -3016
01> -5324
00> -2995
01> -5253
00> -2964
01> -5167
00> -2971
01> -5177
00> -3012
01> -5304
00> -3016
01> -5328
00> -2984
01> -5233
00> -2944
01> -5139
00> -2948
01> -5147
00> -3007
01> -5299
00> -3019
01> -5333
00> -2985
01> -5244
00> -2942
01> -5139
00> -2939
01> -5134
00> -2984
01> -5271
00> -3000
01> -5309
00> -2971
01> -5220
00> -2936
01> -5118
00> -2935
01> -5107
00> -2972
01> -5222
00> -2982
01> -5259
00> -2965
01> -5202
00> -2927
01> -5103
00> -2927
01> -5097
00> -2969
01> -5222
00> -2977
01> -5259
00> -2944
01> -5173
00> -2909
01> -5081
00> -2919
01> -5097
00> -2958
01> -5226
00> -2959
01> -5252
00> -2936
01> -5174
00> -2907
01> -5091
00> -2919
01> -5111
00> -2967
01> -5249
00> -2977
01> -5289
00> -2952
01> -5207
00> -2926
01> -5121
00> -2931
01> -5110
00> -2980
01> -5232
00> -2987
01> -5264
00> -2964
01> -5188
00> -2940
01> -5112
00> -2955
01> -5127
00> -3014
01> -5273
00> -3028
01> -5311
00> -3002
01> -5232
00> -2976
01> -5149
00> -2997
01> -5168
00> -3040
01> -5294
00> -3041
01> -5317
00> -3004
01> -5216
00> -2961
01> -5112
00> -2964
01> -5113
00> -3013
01> -5248
00> -3034
01> -5309
00> -3003
01> -5234
00> -2975
01> -5151
00> -2985
01> -5151
00> -3033
01> -5289
00> -3046
01> -5331
00> -3021
01> -5249
00> -2983
01> -5154
00> -2981
01> -5136
00> -3024
01> -5266
00> -3047
01> -5329
00> -3031
01> -5261
00> -3006
01> -5177
00> -3012
01> -5180
00> -3057
01> -5306
00> -3067
01> -5336
00> -3041
01> -5249
00> -3010
01> -5165
00> -3014
01> -5181
00> -3057
01> -5315
00> -3064
01> -5349
00> -3035
01> -5271
00> -3007
01> -5176
00> -3016
01> -5176
00> -3055
01> -5296
00> -3058
01> -5343
00> -3034
01> -5271
00> -2997
01> -5174
00> -2997
01> -5158
00> -3035
01> -5274
00> -3034
01> -5313
00> -3011
01> -5242
00> -2975
01> -5142
00> -2974
01> -5126
00> -3009
01> -5241
00> -3011
01> -5270
00> -2980
01> -5183
00> -2932
01> -5074
00> -2928
01> -5059
00> -2973
01> -5194
00> -2987
01> -5233
00> -2956
01> -5142
00> -2921
01> -5039
00> -2930
01> -5037
00> -2982
01> -5169
00> -3003
01> -5231
00> -2979
01> -5152
00> -2957
01> -5059
00> -2972
01> -5066
00> -3017
01> -5187
00> -3027
01> -5227
00> -3002
01> -5145
00> -2956
01> -5033
00> -2956
01> -5019
00> -3008
01> -5151
00> -3028
01> -5205
00> -3004
01> -5141
00> -2962
01> -5037
00> -2955
01> -5007
00> -2994
01> -5125
00> -3004
01> -5171
00> -2977
01> -5086
00> -2939
01> -4976
00> -2944
01> -4960
00> -2988
01> -5083
00> -3007
01> -5137
00> -2987
01> -5066
00> -2958
01> -4968
00> -2964
01> -4964
00> -3022
01> -5099
00> -3033
01> -5150
00> -2999
01> -5074
00> -2964
01> -4986
00> -2972
01> -4988
00> -3019
01> -5118
00> -3036
01> -5173
00> -3012
01> -5097
00> -2986
01> -5015
00> -2993
01> -5009
00> -3039
01> -5134
00> -3047
01> -5172
00> -3028
01> -5097
00> -3001
01> -5012
00> -3011
01> -5009
00> -3049
01> -5133
00> -3050
01> -5166
00> -3017
01> -5071
00> -2984
01> -4971
00> -2979
01> -4959
00> -3012
01> -5071
00> -3030
01> -5131
00> -3014
01> -5069
00> -2979
01> -4962
00> -2972
01> -4942
00> -3012
01> -5057
00> -3032
01> -5107
00> -3004
01> -5044
00> -2981
01> -4974
00> -2981
01> -4966
00> -3016
01> -5084
00> -3029
01> -5144
00> -3004
01> -5074
00> -2976
01> -4985
00> -2985
01> -4975
00> -3019
01> -5077
00> -3035
01> -5129
00> -3019
01> -5074
00> -2964
01> -4962
00> -2962
01> -4954
00> -3012
01> -5077
00> -3025
01> -5121
00> -3000
01> -5048
00> -2967
01> -4942
00> -2956
01> -4918
00> -2986
01> -5037
00> -2994
01> -5093
00> -2955
01> -5006
00> -2929
01> -4929
00> -2927
01> -4925
00> -2956
01> -5042
00> -2970
01> -5098
00> -2963
01> -5042
00> -2952
01> -4967
00> -2937
01> -4934
00> -2957
01> -5039
00> -2967
01> -5100
00> -2949
01> -5041
00> -2939
01> -4974
00> -2944
01> -4960
00> -2968
01> -5070
00> -2985
01> -5139
00> -2971
01> -5079
00> -2927
01> -4967
00> -2914
01> -4936
00> -2951
01> -5052
00> -2959
01> -5116
00> -2936
01> -5054
00> -2902
01> -4961
00> -2885
01> -4921
00> -2913
01> -5029
00> -2936
01> -5104
00> -2911
01> -5042
00> -2867
01> -4932
00> -2859
01> -4904
00> -2897
01> -5020
00> -2917
01> -5087
00> -2892
01> -5022
00> -2850
01> -4915
00> -2859
01> -4912
00> -2916
01> -5054
00> -2922
01> -5105
00> -2885
01> -5014
00> -2854
01> -4921
00> -2857
01> -4911
00> -2897
01> -5031
00> -2906
01> -5091
00> -2882
01> -5018
00> -2847
01> -4924
00> -2852
01> -4919
00> -2905
01> -5050
00> -2917
01> -5101
00> -2888
01> -5024
00> -2851
01> -4936
00> -2842
01> -4920
00> -2885
01> -5046
00> -2902
01> -5112
00> -2885
01> -5046
00> -2851
01> -4946
00> -2849
01> -4920
00> -2897
01> -5043
00> -2916
01> -5097
00> -2889
01> -5025
00> -2852
01> -4924
00> -2842
01> -4904
00> -2877
01> -5031
00> -2886
01> -5081
00> -2856
01> -5011
00> -2816
01> -4922
00> -2801
01> -4886
00> -2843
01> -5002
00> -2864
01> -5072
00> -2849
01> -5015
00> -2830
01> -4933
00> -2821
01> -4911
00> -2867
01> -5036
00> -2882
01> -5101
00> -2857
01> -5029
00> -2832
01> -4937
00> -2832
01> -4920
00> -2877
01> -5048
00> -2893
01> -5108
00> -2869
01> -5041
00> -2834
01> -4947
00> -2832
01> -4923
00> -2871
01> -5032
00> -2887
01> -5100
00> -2867
01> -5032
00> -2837
01> -4936
00> -2837
01> -4912
00> -2885
01> -5036
00> -2917
01> -5109
00> -2897
01> -5044
00> -2869
01> -4947
00> -2868
01> -4923
00> -2904
01> -5026
00> -2922
01> -5080
00> -2896
01> -5004
00> -2865
01> -4920
00> -2859
01> -4893
00> -2897
01> -4999
00> -2914
01> -5056
00> -2889
01> -4989
00> -2861
01> -4897
00> -2861
01> -4877
00> -2909
01> -5003
00> -2935
01> -5076
00> -2916
01> -5024
00> -2886
01> -4944
00> -2881
01> -4921
00> -2924
01> -5045
00> -2943
01> -5107
00> -2921
01> -5038
00> -2894
01> -4945
00> -2893
01> -4921
00> -2941
01> -5047
00> -2966
01> -5121
00> -2945
01> -5057
00> -2909
01> -4964
00> -2898
01> -4927
00> -2945
01> -5048
00> -2967
01> -5119
00> -2943
01> -5049
00> -2914
01> -4958
00> -2907
01> -4931
00> -2947
01> -5044
00> -2967
01> -5112
00> -2946
01> -5046
00> -2913
01> -4953
00> -2906
01> -4931
00> -2949
01> -5053
00> -2974
01> -5133
00> -2957
01> -5077
00> -2926
01> -4984
00> -2920
01> -4962
00> -2963
01> -5082
00> -2980
01> -5153
00> -2956
01> -5092
00> -2928
01> -5004
00> -2935
01> -4985
00> -2984
01> -5116
00> -3003
01> -5191
00> -2972
01> -5126
00> -2940
01> -5027
00> -2934
01> -4992
00> -2974
01> -5107
00> -2993
01> -5177
00> -2964
01> -5107
00> -2933
01> -5017
00> -2926
01> -4991
00> -2973
01> -5110
00> -3002
01> -5187
00> -2992
01> -5134
00> -2968
01> -5045
00> -2955
01> -5017
00> -2999
01> -5138
00> -3024
01> -5210
00> -2994
01> -5139
00> -2956
01> -5044
00> -2946
01> -5011
00> -2994
01> -5139
00> -3021
01> -5229
00> -2997
01> -5164
00> -2957
01> -5055
00> -2944
01> -5009
00> -2992
01> -5127
00> -3006
01> -5200
00> -2981
01> -5129
00> -2947
01> -5033
00> -2945
01> -5004
00> -2988
01> -5112
00> -3006
01> -5174
00> -2983
01> -5109
00> -2944
01> -5012
00> -2929
01> -4974
00> -2969
01> -5087
00> -2992
01> -5163
00> -2966
01> -5099
00> -2930
01> -5007
00> -2921
01> -4977
00> -2964
01> -5094
00> -2989
01> -5176
00> -2965
01> -5113
00> -2931
01> -5023
00> -2926
01> -5002
00> -2969
01> -5122
00> -3000
01> -5201
00> -2977
01> -5127
00> -2930
01> -5016
00> -2916
01> -4977
00> -2957
01> -5100
00> -2980
01> -5188
00> -2967
01> -5136
00> -2936
01> -5041
00> -2924
01> -5005
00> -2970
01> -5111
00> -2995
01> -5180
00> -2978
01> -5126
00> -2948
01> -5039
00> -2937
01> -5005
00> -2975
01> -5107
00> -2992
01> -5178
00> -2960
01> -5110
00> -2925
01> -5006
00> -2916
01> -4967
00> -2961
01> -5083
00> -2986
01> -5181
00> -2969
01> -5131
00> -2939
01> -5030
00> -2931
01> -4990
00> -2975
01> -5112
00> -3002
01> -5201
00> -2982
01> -5147
00> -2957
01> -5052
00> -2949
01> -5004
00> -2985
01> -5109
00> -3014
01> -5191
00> -3008
01> -5142
00> -2982
01> -5052
00> -2971
01> -5013
00> -3014
01> -5122
00> -3039
01> -5201
00> -3019
01> -5141
00> -2983
01> -5034
00> -2971
01> -4987
00> -3012
01> -5097
00> -3032
01> -5179
00> -3012
01> -5124
00> -2980
01> -5034
00> -2959
01> -4989
00> -2992
01> -5090
00> -3016
01> -5167
00> -2992
01> -5104
00> -2961
01> -5008
00> -2946
01> -4966
00> -2990
01> -5085
00> -3030
01> -5189
00> -3017
01> -5137
00> -2982
01> -5036
00> -2965
01> -4993
00> -2999
01> -5101
00> -3024
01> -5183
00> -2999
01> -5122
00> -2969
01> -5032
00> -2971
01> -5003
00> -3013
01> -5111
00> -3036
01> -5189
00> -3017
01> -5138
00> -2981
01> -5032
00> -2970
01> -4988
00> -3011
01> -5102
00> -3041
01> -5185
00> -3024
01> -5113
00> -2992
01> -5009
00> -2984
01> -4964
00> -3022
01> -5084
00> -3044
01> -5176
00> -3030
01> -5127
00> -3004
01> -5037
00> -2992
01> -4997
00> -3032
01> -5108
00> -3057
01> -5200
00> -3046
01> -5152
00> -3016
01> -5061
00> -3004
01> -5019
00> -3039
01> -5124
00> -3057
01> -5207
00> -3042
01> -5160
00> -3016
01> -5073
00> -3009
01> -5031
00> -3053
01> -5142
00> -3072
01> -5220
00> -3050
01> -5166
00> -3012
01> -5064
00> -2990
01> -5005
00> -3022
01> -5109
00> -3048
01> -5194
00> -3032
01> -5143
00> -3010
01> -5057
00> -3004
01> -5019
00> -3050
01> -5133
00> -3079
01> -5227
00> -3064
01> -5177
00> -3025
01> -5076
00> -3004
01> -5026
00> -3042
01> -5147
00> -3075
01> -5244
00> -3061
01> -5191
00> -3021
01> -5094
00> -2997
01> -5044
00> -3023
01> -5146
00> -3047
01> -5232
00> -3036
01> -5169
00> -3006
01> -5067
00> -2988
01> -5018
00> -3016
01> -5119
00> -3042
01> -5204
00> -3027
01> -5152
00> -2989
01> -5053
00> -2964
01> -5004
00> -2987
01> -5092
00> -3009
01> -5176
00> -2990
01> -5127
00> -2951
01> -5036
00> -2934
01> -4989
00> -2982
01> -5099
00> -3014
01> -5199
00> -2997
01> -5156
00> -2961
01> -5061
00> -2942
01> -5011
00> -2981
01> -5109
00> -2997
01> -5189
00> -2973
01> -5138
00> -2937
01> -5047
00> -2921
01> -5002
00> -2964
01> -5107
00> -2994
01> -5207
00> -2974
01> -5157
00> -2942
01> -5064
00> -2928
01> -5018
00> -2961
01> -5112
00> -2984
01> -5196
00> -2964
01> -5145
00> -2924
01> -5047
00> -2906
01> -4985
00> -2936
01> -5078
00> -2957
01> -5179
00> -2938
01> -5139
00> -2904
01> -5055
00> -2887
01> -5010
00> -2921
01> -5112
00> -2949
01> -5219
00> -2928
01> -5169
00> -2891
01> -5068
00> -2879
01> -5026
00> -2918
01> -5130
00> -2945
01> -5235
00> -2930
01> -5194
00> -2898
01> -5094
00> -2881
01> -5041
00> -2923
01> -5132
00> -2952
01> -5222
00> -2932
01> -5169
00> -2902
01> -5075
00> -2887
01> -5032
00> -2917
01> -5131
00> -2942
01> -5219
00> -2923
01> -5171
00> -2891
01> -5082
00> -2879
01> -5039
00> -2914
01> -5136
00> -2937
01> -5227
00> -2916
01> -5179
00> -2882
01> -5086
00> -2872
01> -5041
00> -2914
01> -5144
00> -2938
01> -5228
00> -2919
01> -5175
00> -2894
01> -5095
00> -2883
01> -5054
00> -2919
01> -5147
00> -2951
01> -5246
00> -2941
01> -5205
00> -2916
01> -5113
00> -2907
01> -5074
00> -2947
01> -5182
00> -2985
01> -5282
00> -2980
01> -5239
00> -2952
01> -5144
00> -2946
01> -5092
00> -2992
01> -5194
