# SEGGER J-Link RTT Viewer V6.62 Terminal Log File
# Compiled: 16:34:01 on Jan 24 2020
# Logging started @ 20 Jun 2024 16:04:00

00> -31802
01> -42548
00> -31832
01> -42547
00> -31861
01> -42548
00> -31855
01> -42554
00> -31831
01> -42563
00> -31821
01> -42565
00> -31846
01> -42560
00> -31869
01> -42562
00> -31867
01> -42577
00> -31836
01> -42587
00> -31822
01> -42582
00> -31846
01> -42579
00> -31871
01> -42582
00> -31861
01> -42586
00> -31834
01> -42589
00> -31831
01> -42591
00> -31861
01> -42587
00> -31886
01> -42591
00> -31877
01> -42598
00> -31850
01> -42596
00> -31840
01> -42592
00> -31857
01> -42578
00> -31881
01> -42577
00> -31874
01> -42586
00> -31850
01> -42592
00> -31841
01> -42596
00> -31860
01> -42582
00> -31885
01> -42591
00> -31874
01> -42597
00> -31848
01> -42587
00> -31844
01> -42577
00> -31864
01> -42566
00> -31892
01> -42562
00> -31881
01> -42574
00> -31852
01> -42590
00> -31839
01> -42589
00> -31862
01> -42580
00> -31889
01> -42579
00> -31887
01> -42583
00> -31856
01> -42587
00> -31846
01> -42586
00> -31871
01> -42576
00> -31897
01> -42574
00> -31896
01> -42581
00> -31868
01> -42589
00> -31854
01> -42594
00> -31876
01> -42587
00> -31909
01> -42581
00> -31903
01> -42588
00> -31869
01> -42594
00> -31860
01> -42586
00> -31879
01> -42572
00> -31897
01> -42566
00> -31896
01> -42586
00> -31866
01> -42595
00> -31852
01> -42592
00> -31873
01> -42582
00> -31896
01> -42578
00> -31901
01> -42596
00> -31876
01> -42606
00> -31856
01> -42601
00> -31871
01> -42589
00> -31894
01> -42587
00> -31898
01> -42598
00> -31877
01> -42603
00> -31862
01> -42593
00> -31879
01> -42581
00> -31903
01> -42576
00> -31902
01> -42580
00> -31873
01> -42590
00> -31854
01> -42590
00> -31871
01> -42586
00> -31901
01> -42589
00> -31904
01> -42605
00> -31876
01> -42612
00> -31857
01> -42607
01> 
00> -31873
01> -42597
00> -31899
01> -42599
00> -31899
01> -42618
00> -31878
01> -42624
00> -31861
01> -42610
00> -31881
01> -42601
00> -31906
01> -42601
00> -31902
01> -42611
00> -31872
01> -42614
00> -31855
01> -42614
00> -31871
01> -42612
00> -31894
01> -42615
00> -31894
01> -42612
00> -31874
01> -42606
00> -31863
01> -42598
00> -31885
01> -42591
00> -31914
01> -42596
00> -31911
01> -42611
00> -31880
01> -42622
00> -31866
01> -42611
00> -31887
01> -42599
00> -31911
01> -42597
00> -31906
01> -42610
00> -31873
01> -42613
00> -31856
01> -42600
00> -31884
01> -42581
00> -31907
01> -42574
00> -31897
01> -42573
00> -31869
01> -42567
00> -31862
01> -42559
00> -31881
01> -42565
00> -31903
01> -42563
00> -31901
01> -42569
00> -31870
01> -42578
00> -31860
01> -42589
00> -31877
01> -42580
00> -31903
01> -42583
00> -31906
01> -42591
00> -31878
01> -42601
00> -31866
01> -42596
00> -31887
01> -42583
00> -31914
01> -42572
00> -31907
01> -42569
00> -31876
01> -42580
00> -31864
01> -42582
00> -31881
01> -42574
00> -31909
01> -42577
00> -31909
01> -42591
00> -31884
01> -42601
00> -31867
01> -42591
00> -31890
01> -42588
00> -31916
01> -42586
00> -31914
01> -42594
00> -31887
01> -42606
00> -31870
01> -42606
00> -31887
01> -42601
00> -31916
01> -42597
00> -31922
01> -42607
00> -31904
01> -42616
00> -31886
01> -42613
00> -31903
01> -42602
00> -31927
01> -42597
00> -31922
01> -42613
00> -31894
01> -42621
00> -31879
01> -42621
00> -31901
01> -42621
00> -31927
01> -42621
00> -31927
01> -42622
00> -31898
01> -42624
00> -31885
01> -42622
00> -31900
01> -42623
00> -31926
01> -42626
00> -31925
01> -42622
00> -31891
01> -42616
00> -31877
01> -42621
00> -31899
01> -42618
00> -31921
01> -42607
00> -31924
01> -42616
00> -31900
01> -42622
00> -31874
01> -42623
00> -31890
01> -42624
00> -31928
01> -42624
00> -31936
01> -42631
00> -31911
01> -42639
00> -31886
01> -42634
00> -31903
01> -42623
00> -31932
01> -42626
00> -31931
01> -42630
00> -31904
01> -42635
00> -31889
01> -42639
00> -31907
01> -42637
00> -31938
01> -42627
00> -31939
01> -42627
00> -31917
01> -42638
00> -31907
01> -42639
00> -31925
01> -42626
00> -31954
01> -42620
00> -31951
01> -42628
00> -31920
01> -42636
00> -31906
01> -42634
00> -31929
01> -42632
00> -31956
01> -42630
00> -31950
01> -42638
00> -31919
01> -42639
00> -31898
01> -42634
00> -31918
01> -42631
00> -31949
01> -42630
00> -31950
01> -42638
00> -31924
01> -42657
00> -31902
01> -42649
00> -31922
01> -42626
00> -31952
01> -42620
00> -31956
01> -42631
00> -31930
01> -42639
00> -31906
01> -42632
00> -31922
01> -42624
00> -31954
01> -42628
00> -31956
01> -42632
00> -31931
01> -42638
00> -31915
01> -42636
00> -31927
01> -42626
00> -31948
01> -42619
00> -31954
01> -42631
00> -31927
01> -42639
00> -31907
01> -42637
00> -31929
01> -42626
00> -31958
01> -42616
00> -31962
01> -42627
00> -31937
00> -31917
01> -42483
00> -31899
01> -42489
00> -31912
01> -42485
00> -31939
01> -42477
00> -31949
01> -42484
00> -31924
01> -42491
00> -31906
01> -42494
00> -31917
01> -42490
00> -31947
01> -42484
00> -31962
01> -42494
00> -31936
01> -42504
00> -31909
01> -42498
00> -31914
01> -42497
00> -31936
01> -42498
00> -31946
01> -42497
00> -31931
01> -42501
00> -31906
01> -42504
00> -31914
01> -42494
00> -31939
01> -42481
00> -31944
01> -42484
00> -31919
01> -42482
00> -31902
01> -42491
00> -31914
01> -42497
00> -31943
01> -42496
00> -31952
01> -42496
00> -31933
01> -42507
00> -31911
01> -42511
00> -31914
01> -42491
00> -31942
01> -42481
00> -31946
01> -42492
00> -31919
01> -42501
00> -31893
01> -42503
00> -31902
01> -42497
00> -31936
01> -42494
00> -31947
01> -42496
00> -31930
01> -42496
00> -31907
01> -42502
00> -31911
01> -42509
00> -31940
01> -42501
00> -31948
01> -42492
00> -31929
01> -42500
00> -31907
01> -42505
00> -31909
01> -42497
00> -31932
01> -42481
00> -31942
01> -42477
00> -31917
01> -42494
00> -31889
01> -42506
00> -31897
01> -42497
00> -31932
01> -42486
00> -31947
01> -42490
00> -31928
01> -42497
00> -31901
01> -42492
00> -31903
01> -42483
00> -31932
01> -42481
00> -31945
01> -42487
00> -31921
01> -42493
00> -31899
01> -42496
00> -31903
01> -42489
00> -31932
01> -42484
00> -31951
01> -42498
00> -31929
01> -42506
00> -31894
01> -42500
00> -31895
01> -42494
00> -31922
01> -42491
00> -31929
01> -42479
00> -31901
01> -42464
00> -31858
01> -42449
00> -31844
01> -42427
00> -31857
01> -42408
00> -31860
01> -42406
00> -31826
01> -42409
00> -31794
01> -42397
00> -31796
01> -42389
00> -31809
01> -42382
00> -31816
01> -42389
00> -31797
01> -42397
00> -31777
01> -42396
00> -31784
01> -42396
00> -31816
01> -42398
00> -31831
01> -42404
00> -31806
01> -42412
00> -31783
01> -42412
00> -31789
01> -42406
00> -31820
01> -42403
00> -31836
01> -42417
00> -31814
01> -42431
00> -31786
01> -42430
00> -31789
01> -42420
00> -31816
01> -42416
00> -31824
01> -42416
00> -31807
01> -42422
00> -31786
01> -42427
00> -31787
01> -42432
00> -31811
01> -42426
00> -31823
01> -42427
00> -31801
01> -42432
00> -31773
01> -42429
00> -31782
01> -42415
00> -31807
01> -42408
00> -31816
01> -42413
00> -31795
01> -42425
00> -31774
01> -42429
00> -31776
01> -42422
00> -31809
01> -42422
00> -31825
01> -42426
00> -31798
01> -42431
00> -31765
01> -42428
00> -31762
01> -42413
00> -31788
01> -42401
00> -31806
01> -42408
00> -31787
01> -42421
00> -31764
01> -42426
00> -31766
01> -42424
00> -31788
01> -42427
00> -31804
01> -42436
00> -31784
01> -42446
00> -31759
01> -42446
00> -31764
01> -42438
00> -31799
01> -42432
00> -31810
01> -42437
00> -31786
01> -42444
00> -31759
01> -42452
00> -31755
01> -42441
00> -31774
01> -42429
00> -31781
01> -42422
00> -31762
01> -42418
00> -31736
01> -42409
00> -31728
01> -42386
00> -31740
01> -42363
00> -31739
01> -42341
00> -31716
01> -42327
00> -31676
01> -42294
00> -31652
01> -42236
00> -31650
01> -42182
00> -31633
01> -42136
00> -31589
01> -42091
00> -31554
01> -42055
00> -31555
01> -42012
00> -31579
01> -41973
00> -31591
01> -41934
00> -31574
01> -41898
00> -31555
01> -41867
00> -31562
01> -41834
00> -31601
01> -41806
00> -31633
01> -41796
00> -31636
01> -41799
00> -31623
01> -41801
00> -31642
01> -41797
00> -31681
01> -41801
00> -31701
01> -41797
00> -31697
01> -41810
00> -31689
01> -41816
00> -31711
01> -41820
00> -31757
01> -41831
00> -31774
01> -41833
00> -31770
01> -41848
00> -31771
01> -41872
00> -31780
01> -41880
00> -31816
01> -41898
00> -31857
01> -41935
00> -31870
01> -41984
00> -31875
01> -42032
00> -31898
01> -42072
00> -31932
01> -42098
00> -31967
01> -42129
00> -31980
01> -42181
00> -31989
01> -42244
00> -32009
01> -42282
00> -32047
01> -42317
00> -32072
01> -42354
00> -32074
01> -42392
00> -32064
01> -42417
00> -32067
01> -42426
00> -32102
01> -42439
00> -32140
01> -42474
00> -32152
01> -42509
00> -32145
01> -42536
00> -32149
01> -42550
00> -32174
01> -42562
00> -32200
01> -42588
00> -32217
01> -42631
00> -32211
01> -42660
00> -32211
01> -42671
00> -32236
01> -42680
00> -32253
01> -42701
00> -32244
01> -42721
00> -32232
01> -42741
00> -32248
01> -42754
00> -32289
01> -42764
00> -32319
01> -42789
00> -32309
01> -42804
00> -32288
01> -42819
00> -32291
01> -42829
00> -32321
01> -42828
00> -32344
01> -42837
00> -32341
01> -42856
00> -32319
01> -42870
00> -32319
01> -42871
00> -32351
01> -42877
00> -32363
01> -42891
00> -32358
01> -42911
00> -32342
01> -42918
00> -32339
01> -42909
00> -32362
01> -42899
00> -32381
01> -42901
00> -32366
01> -42913
00> -32336
01> -42921
00> -32333
01> -42913
00> -32358
01> -42901
00> -32374
01> -42902
00> -32361
01> -42911
00> -32332
01> -42907
00> -32326
01> -42907
00> -32348
01> -42901
00> -32364
01> -42898
00> -32354
01> -42906
00> -32331
01> -42908
00> -32327
01> -42911
00> -32336
01> -42903
00> -32349
01> -42897
00> -32348
01> -42916
00> -32327
01> -42932
00> -32314
01> -42936
00> -32336
01> -42933
00> -32351
01> -42927
00> -32344
01> -42940
00> -32319
01> -42950
00> -32314
01> -42949
00> -32338
01> -42948
00> -32360
01> -42949
00> -32348
01> -42953
00> -32317
01> -42962
00> -32302
01> -42958
00> -32316
01> -42957
00> -32332
01> -42963
00> -32319
01> -42975
00> -32292
01> -42974
00> -32277
01> -42954
00> -32299
01> -42942
00> -32340
01> -42957
00> -32336
01> -42971
00> -32301
01> -42976
00> -32294
01> -42975
00> -32314
01> -42969
00> -32326
01> -42967
00> -32311
01> -42973
00> -32290
01> -42977
00> -32289
01> -42972
00> -32307
01> -42957
00> -32318
01> -42956
00> -32309
01> -42971
00> -32289
01> -42983
00> -32282
01> -42977
00> -32307
01> -42975
00> -32329
01> -42984
00> -32318
01> -42991
00> -32291
01> -42989
00> -32279
01> -42971
00> -32292
01> -42952
00> -32300
01> -42944
00> -32291
01> -42966
00> -32271
01> -42976
00> -32269
01> -42963
00> -32290
01> -42946
00> -32312
01> -42954
00> -32304
01> -42974
00> -32275
01> -42991
00> -32262
01> -43007
00> -32271
01> -43009
00> -32277
01> -43010
00> -32261
01> -43016
00> -32226
01> -43028
00> -32204
01> -43028
00> -32209
01> -43018
00> -32224
01> -43012
00> -32219
01> -43018
00> -32192
01> -43026
00> -32181
01> -43024
00> -32194
01> -43022
00> -32216
01> -43017
00> -32202
01> -43018
00> -32172
01> -43024
00> -32167
01> -43024
00> -32184
01> -43017
00> -32206
01> -43020
00> -32205
01> -43034
00> -32178
01> -43034
00> -32163
01> -43031
00> -32177
01> -43023
00> -32196
01> -43017
00> -32191
01> -43020
00> -32168
01> -43029
00> -32161
01> -43031
00> -32178
01> -43017
00> -32193

00> -32179
01> -43027
00> -32151
01> -43031
00> -32146
01> -43027
00> -32177
01> -43027
00> -32196
01> -43033
00> -32184
01> -43039
00> -32151
01> -43040
00> -32142
01> -43032
00> -32164
01> -43023
00> -32189
01> -43024
00> -32178
01> -43035
00> -32149
01> -43047
00> -32142
01> -43041
00> -32159
01> -43027
00> -32177
01> -43021
00> -32164
01> -43019
00> -32142
01> -43024
00> -32137
01> -43024
00> -32163
01> -43017
00> -32181
01> -43016
00> -32174
01> -43027
00> -32152
01> -43039
00> -32142
01> -43040
00> -32156
01> -43036
00> -32182
01> -43037
00> -32177
01> -43042
00> -32137
01> -43041
00> -32126
01> -43032
00> -32149
01> -43027
00> -32171
01> -43024
00> -32171
01> -43032
00> -32151
01> -43044
00> -32132
01> -43041
00> -32146
01> -43032
00> -32169
01> -43034
00> -32167
01> -43052
00> -32140
01> -43057
00> -32126
01> -43045
00> -32141
01> -43031
00> -32159
01> -43023
00> -32157
01> -43030
00> -32131
01> -43032
00> -32117
01> -43019
00> -32128
01> -43014
00> -32152
01> -43016
00> -32162
01> -43024
00> -32146
01> -43032
00> -32141
01> -43022
00> -32162
01> -43004
00> -32194
01> -43002
00> -32206
01> -43014
00> -32197
01> -43017
00> -32195
01> -43017
00> -32211
01> -43002
00> -32236
01> -42990
00> -32232
01> -42990
00> -32207
01> -42992
00> -32202
01> -42986
00> -32226
01> -42977
00> -32245
01> -42967
00> -32230
01> -42969
00> -32213
01> -42989
00> -32220
01> -42997
00> -32236
01> -42984
00> -32249
01> -42978
00> -32251
01> -42983
00> -32225
01> -42981
00> -32220
01> -42982
00> -32237
01> -42987
00> -32252
01> -42979
00> -32242
01> -42976
00> -32222
01> -42987
00> -32219
01> -42992
00> -32231
01> -42981
00> -32249
01> -42967
00> -32236
01> -42958
00> -32206
01> -42965
00> -32197
01> -42971
00> -32216
01> -42969
00> -32232
01> -42952
00> -32224
01> -42946
00> -32212
01> -42964
00> -32211
01> -42957
00> -32231
01> -42956
00> -32243
01> -42952
00> -32228
01> -42954
00> -32197
01> -42962
00> -32204
01> -42979
00> -32229
01> -42975
00> -32251
01> -42970
00> -32242
01> -42975
00> -32213
01> -42976
00> -32201
01> -42969
00> -32213
01> -42949
00> -32234
01> -42946
00> -32229
01> -42957
00> -32213
01> -42972
00> -32198
01> -42968
00> -32216
01> -42964
00> -32247
01> -42966
00> -32242
01> -42968
00> -32197
01> -42952
00> -32193
01> -42959
00> -32230
01> -42970
00> -32251
01> -42971
00> -32241
01> -42977
00> -32214
01> -42985
00> -32204
01> -42977
00> -32221
01> -42962
00> -32246
01> -42967
00> -32247
01> -42982
00> -32221
01> -42989
00> -32205
01> -42983
00> -32216
01> -42970
00> -32238
01> -42963
00> -32237
01> -42971
00> -32216
01> -42976
00> -32204
01> -42974
00> -32222
01> -42969
00> -32250
01> -42979
00> -32242
01> -42983
00> -32214
01> -42987
00> -32204
01> -42976
00> -32226
01> -42967
00> -32244
01> -42964
00> -32237
01> -42969
00> -32214
01> -42976
00> -32204
01> -42979
00> -32215
01> -42974
00> -32236
01> -42976
00> -32232
01> -42974
00> -32204
01> -42973
00> -32191
01> -42974
00> -32209
01> -42971
00> -32233
01> -42972
00> -32235
01> -42975
00> -32206
01> -42981
00> -32184
01> -42972
00> -32203
01> -42969
00> -32237
01> -42979
00> -32235
01> -42987
00> -32206
01> -42984
00> -32196
01> -42977
00> -32204
01> -42971
00> -32217
01> -42954
00> -32226
01> -42959
00> -32221
01> -42982
00> -32213
01> -42994
00> -32232
01> -42989
00> -32249
01> -42987
00> -32234
01> -42992
00> -32207
01> -42986
00> -32194
01> -42978
00> -32216
01> -42979
00> -32243
01> -42977
00> -32236
01> -42981
00> -32201
01> -42985
00> -32190
01> -42978
00> -32211
01> -42959
00> -32231
01> -42956
00> -32229
01> -42972
00> -32198
01> -42977
00> -32179
01> -42966
00> -32196
01> -42957
00> -32223
01> -42964
00> -32220
01> -42962
00> -32204
01> -42971
00> -32191
01> -42973
00> -32198
01> -42955
00> -32224
01> -42951
00> -32223
01> -42960
00> -32186
01> -42945
00> -32167
01> -42933
00> -32201
01> -42937
00> -32222
01> -42937
00> -32216
01> -42948
00> -32184
01> -42946
00> -32171
01> -42947
00> -32184
01> -42939
00> -32209
01> -42945
00> -32203
01> -42939
00> -32158
01> -42924
00> -32132
01> -42904
00> -32150
01> -42886
00> -32169
01> -42871
00> -32154
01> -42864
00> -32114
01> -42863
00> -32086
01> -42849
00> -32095
01> -42836
00> -32111
01> -42822
00> -32114
01> -42819
00> -32099
01> -42827
00> -32078
01> -42824
00> -32081
01> -42817
00> -32101
01> -42812
00> -32110
01> -42829
00> -32089
01> -42847
00> -32079
01> -42844
00> -32106
01> -42839
00> -32127
01> -42834
00> -32115
01> -42832
00> -32094
01> -42842
00> -32076
01> -42837
00> -32091
01> -42829
00> -32112
01> -42836
00> -32111
01> -42852
00> -32088
01> -42856
00> -32075
01> -42854
00> -32090
01> -42846
00> -32119
01> -42846
00> -32121
01> -42860
00> -32096
01> -42868
00> -32074
01> -42858
00> -32085
01> -42846
00> -32107
01> -42843
00> -32114
01> -42868
00> -32091
01> -42887
00> -32081
01> -42888
00> -32101
01> -42879
00> -32120
01> -42876
00> -32112
01> -42876
00> -32089
01> -42883
00> -32084
01> -42891
00> -32099
01> -42886
00> -32121
01> -42893
00> -32127
01> -42904
00> -32107
01> -42905
00> -32084
01> -42899
00> -32091
01> -42886
00> -32111
01> -42874
00> -32127
01> -42883
00> -32114
01> -42896
00> -32096
01> -42896
00> -32102
01> -42884
00> -32122
01> -42882
00> -32120
01> -42886
00> -32091
01> -42889
00> -32077
01> -42884
00> -32090
01> -42872
00> -32110
01> -42866
00> -32113
01> -42868
00> -32099
01> -42879
00> -32091
01> -42881
00> -32105
01> -42879
00> -32122
01> -42880
00> -32113
01> -42886
00> -32082
01> -42897
00> -32077
01> -42904
00> -32092
01> -42882
00> -32117
01> -42872
00> -32119
01> -42884
00> -32091
01> -42898
00> -32071
01> -42891
00> -32087
01> -42879
00> -32119
01> -42874
00> -32112
01> -42876
00> -32081
01> -42880
00> -32071
01> -42880
00> -32094
01> -42877
00> -32120
01> -42883
00> -32111
01> -42889
00> -32081
01> -42893
00> -32063
01> -42889
00> -32076
01> -42882
00> -32106
01> -42881
00> -32109
01> -42888
00> -32089
01> -42889
00> -32073
01> -42878
00> -32090
01> -42881
00> -32114
01> -42884
00> -32106
01> -42887
00> -32084
01> -42884
00> -32069
01> -42882
00> -32077
01> -42877
00> -32097
01> -42869
00> -32111
01> -42879
00> -32101
01> -42892
00> -32079
01> -42893
00> -32079
01> -42882
00> -32104
01> -42879
00> -32108
01> -42876
00> -32076
01> -42867
00> -32059
01> -42860
00> -32080
01> -42849
00> -32102
01> -42851
00> -32104
01> -42867
00> -32075
01> -42871
00> -32049
01> -42856
00> -32054
01> -42847
00> -32072
01> -42830
00> -32077
01> -42826
00> -32057
01> -42842
00> -32044
01> -42849
00> -32058
01> -42844
00> -32074
01> -42829
00> -32079
01> -42837
00> -32058
01> -42846
00> -32037
01> -42839
00> -32048
01> -42824
00> -32071
01> -42822
00> -32081
01> -42839
00> -32062
01> -42851
00> -32043
01> -42847
00> -32052
01> -42849
00> -32070
01> -42848
00> -32067
01> -42849
00> -32042
01> -42854
00> -32022
01> -42854
00> -32027
01> -42843
00> -32056
01> -42844
00> -32074
01> -42866
00> -32057
01> -42879
00> -32032
01> -42872
00> -32039
01> -42857
00> -32069
01> -42858
00> -32076
01> -42869
00> -32055
01> -42867
00> -32037
01> -42864
00> -32054
01> -42862
00> -32076
01> -42856
00> -32077
01> -42852
00> -32059
01> -42864
00> -32044
01> -42860
00> -32054
01> -42847
00> -32072
01> -42846
00> -32072
01> -42850
00> -32037
01> -42835
00> -31999
01> -42799
00> -32001
01> -42767
00> -32011
01> -42748
00> -31991
01> -42722
00> -31939
01> -42686
00> -31902
01> -42657
00> -31891
01> -42617
00> -31894
01> -42573
00> -31875
01> -42532
00> -31827
01> -42490
00> -31789
01> -42458
00> -31782
01> -42418
00> -31801
01> -42397
00> -31796
01> -42389
00> -31762
01> -42377
00> -31739
01> -42359
00> -31731
01> -42326
00> -31746
01> -42312
00> -31744
01> -42302
00> -31710
01> -42286
00> -31687
01> -42277
00> -31684
01> -42259
00> -31699
01> -42242
00> -31694
01> -42230
00> -31669
01> -42225
00> -31642
01> -42206
00> -31645
01> -42186
00> -31671
01> -42174
00> -31672
01> -42166
00> -31643
01> -42150
00> -31620
01> -42144
00> -31635
01> -42132
00> -31656
01> -42121
00> -31657
01> -42125
00> -31634
01> -42126
00> -31605
01> -42103
00> -31599
01> -42074
00> -31614
01> -42059
00> -31604
01> -42041
00> -31560
01> -42015
00> -31527
01> -41989
00> -31532
01> -41957
00> -31539
01> -41924
00> -31532
01> -41900
00> -31496
01> -41859
00> -31452
01> -41807
00> -31429
01> -41744
00> -31426
01> -41689
00> -31408
01> -41629
00> -31366
01> -41575
00> -31325
01> -41527
00> -31306
01> -41464
00> -31301
01> -41399
00> -31287
01> -41362
00> -31239
01> -41334
00> -31185
01> -41282
00> -31191
01> -41251
00> -31215
01> -41233
00> -31211
01> -41219
00> -31177
01> -41193
00> -31154
01> -41173
00> -31158
01> -41141
00> -31173
01> -41109
00> -31173
01> -41096
00> -31142
01> -41086
00> -31113
01> -41053
00> -31126
01> -41039
00> -31144
01> -41021
00> -31139
01> -41006
00> -31104
01> -40995
00> -31073
01> -40984
00> -31081
01> -40963
00> -31116
01> -40943
00> -31126
01> -40938
00> -31106
01> -40937
00> -31078
01> -40921
00> -31076
01> -40900
00> -31102
01> -40901
00> -31112
01> -40907
00> -31087
01> -40896
00> -31061
01> -40879
00> -31067
01> -40867
00> -31092
01> -40855
00> -31102
01> -40855
00> -31072
01> -40858
00> -31040
01> -40843
00> -31047
01> -40822
00> -31071
01> -40812
00> -31078
01> -40812
00> -31057
01> -40812
00> -31028
01> -40804
00> -31025
01> -40776
00> -31047
01> -40756
00> -31052
01> -40755
00> -31029
01> -40758
00> -30991
01> -40743
00> -31001
01> -40744
00> -31034
01> -40751
00> -31054
01> -40753
00> -31042
01> -40748
00> -31020
01> -40730
00> -31025
01> -40716
00> -31045
01> -40700
00> -31049
01> -40700
00> -31026
01> -40698
00> -30998
01> -40697
00> -30994
01> -40684
00> -31022
01> -40672
00> -31034
01> -40671
00> -31023
01> -40679
00> -31001
01> -40681
00> -31014
01> -40678
00> -31044
01> -40677
00> -31060
01> -40691
00> -31044
01> -40695
00> -31026
01> -40684
00> -31033
01> -40670
00> -31061
01> -40668
00> -31067
01> -40674
00> -31044
01> -40679
00> -31016
01> -40662
00> -31021
01> -40642
00> -31053
01> -40644
00> -31070
01> -40644
00> -31053
01> -40649
00> -31031
01> -40650
00> -31041
01> -40642
00> -31067
01> -40631
00> -31069
01> -40632
00> -31052
01> -40637
00> -31030
01> -40637
00> -31037
01> -40632
00> -31070
01> -40630
00> -31089
01> -40640
00> -31079
01> -40648
00> -31069
01> -40656
00> -31072
01> -40648
00> -31092
01> -40639
00> -31104
01> -40646
00> -31088
01> -40661
00> -31064
01> -40662
00> -31066
01> -40644
00> -31089
01> -40626
00> -31100
01> -40612
00> -31069
01> -40609
00> -31034
01> -40593
00> -31046
01> -40595
00> -31071
01> -40596
00> -31078
01> -40599
00> -31060
01> -40609
00> -31042
01> -40608
00> -31044
01> -40603
00> -31057
01> -40596
00> -31061
01> -40599
00> -31037
01> -40606
00> -31019
01> -40616
00> -31031
01> -40616
00> -31057
01> -40600
00> -31060
01> -40576
00> -31049
01> -40580
00> -31029
01> -40596
00> -31032
01> -40603
00> -31054
01> -40607
00> -31057
01> -40610
00> -31036
01> -40617
00> -31013
01> -40613
00> -31011
01> -40598
00> -31042
01> -40589
00> -31062
01> -40594
00> -31052
01> -40604
00> -31035
01> -40609
00> -31038
01> -40606
00> -31062

00> -31068
01> -40589
00> -31052
01> -40595
00> -31029
01> -40609
00> -31034
01> -40607
00> -31056
01> -40604
00> -31072
01> -40614
00> -31054
01> -40633
00> -31027
01> -40641
00> -31024
01> -40616
00> -31042
01> -40593
00> -31067
01> -40610
00> -31052
01> -40634
00> -31027
01> -40632
00> -31022
01> -40620
00> -31045
01> -40608
00> -31060
01> -40604
00> -31056
01> -40612
00> -31031
01> -40621
00> -31029
01> -40610
00> -31057
01> -40606
00> -31077
01> -40611
00> -31054
01> -40610
00> -31026
01> -40603
00> -31031
01> -40584
00> -31044
01> -40563
00> -31055
01> -40562
00> -31037
01> -40576
00> -31017
01> -40582
00> -31017
01> -40584
00> -31045
01> -40596
00> -31070
01> -40611
00> -31061
01> -40612
00> -31043
01> -40612
00> -31055
01> -40609
00> -31081
01> -40611
00> -31099
01> -40612
00> -31082
01> -40616
00> -31059
01> -40621
00> -31052
01> -40599
00> -31072
01> -40591
00> -31086
01> -40598
00> -31064
01> -40613
00> -31043
01> -40621
00> -31045
01> -40609
00> -31062
01> -40589
00> -31078
01> -40576
00> -31068
01> -40587
00> -31044
01> -40591
00> -31046
01> -40592
00> -31066
01> -40579
00> -31064
01> -40567
00> -31046
01> -40586
00> -31019
01> -40592
00> -31022
01> -40588
00> -31059
01> -40591
00> -31083
01> -40604
00> -31077
01> -40624
00> -31054
01> -40626
00> -31057
01> -40622
00> -31084
01> -40618
00> -31089
01> -40612
00> -31071
01> -40621
00> -31036
01> -40609
00> -31047
01> -40608
00> -31081
01> -40618
00> -31096
01> -40624
00> -31071
01> -40634
00> -31033
01> -40631
00> -31030
01> -40611
00> -31067
01> -40616
00> -31091
01> -40631
00> -31066
01> -40634
00> -31033
01> -40625
00> -31017
01> -40589
00> -31032
01> -40572
00> -31061
01> -40592
00> -31054
01> -40609
00> -31034
01> -40618
00> -31029
01> -40606
00> -31059
01> -40602
00> -31084
01> -40618
00> -31062
01> -40619
00> -31016
01> -40596
00> -31009
01> -40577
00> -31024
01> -40556
00> -31049
01> -40562
00> -31054
01> -40591
00> -31027
01> -40594
00> -31036
01> -40604
00> -31062
01> -40615
00> -31079
01> -40629
00> -31070
01> -40639
00> -31042
01> -40632
00> -31051
01> -40624
00> -31067
01> -40610
00> -31090
01> -40623
00> -31087
01> -40639
00> -31058
01> -40634
00> -31050
01> -40621
00> -31078
01> -40618
00> -31092
01> -40624
00> -31085
01> -40638
00> -31070
01> -40641
00> -31066
01> -40631
00> -31093
01> -40637
00> -31108
01> -40642
00> -31094
01> -40659
00> -31071
01> -40657
00> -31076
01> -40651
00> -31105
01> -40651
00> -31122
01> -40648
00> -31116
01> -40662
00> -31102
01> -40674
00> -31107
01> -40678
00> -31127
01> -40676
00> -31118
01> -40646
00> -31109
01> -40669
00> -31115
01> -40714
00> -31124
01> -40719
00> -31142
01> -40709
00> -31149
01> -40701
00> -31130
01> -40699
00> -31109
01> -40711
00> -31111
01> -40709
00> -31135
01> -40709
00> -31146
01> -40713
00> -31124
01> -40719
00> -31097
01> -40717
00> -31099
01> -40709
00> -31126
01> -40704
00> -31141
01> -40701
00> -31134
01> -40709
00> -31128
01> -40729
00> -31140
01> -40739
00> -31162
01> -40736
00> -31179
01> -40737
00> -31161
01> -40739
00> -31132
01> -40746
00> -31127
01> -40746
00> -31141
01> -40734
00> -31164
01> -40747
00> -31162
01> -40771
00> -31144
01> -40784
00> -31141
01> -40781
00> -31166
01> -40771
00> -31187
01> -40779
00> -31174
01> -40787
00> -31157
01> -40802
00> -31164
01> -40806
00> -31194
01> -40808
00> -31213
01> -40815
00> -31196
01> -40817
00> -31167
01> -40817
00> -31164
01> -40820
00> -31183
01> -40819
00> -31201
01> -40821
00> -31190
01> -40829
00> -31160
01> -40827
00> -31167
01> -40830
00> -31194
01> -40834
00> -31205
01> -40831
00> -31199
01> -40844
00> -31187
01> -40854
00> -31199
01> -40861
00> -31217
01> -40852
00> -31217
01> -40837
00> -31184
01> -40814
00> -31161
01> -40823
00> -31172
01> -40834
00> -31202
01> -40832
00> -31226
01> -40842
00> -31211
01> -40852
00> -31198
01> -40866
00> -31200
01> -40861
00> -31226
01> -40851
00> -31237
01> -40847
00> -31226
01> -40851
00> -31211
01> -40869
00> -31206
01> -40864
00> -31239
01> -40858
00> -31262
01> -40866
00> -31244
01> -40868
00> -31227
01> -40871
00> -31232
01> -40871
00> -31251
01> -40863
00> -31262
01> -40869
00> -31259
01> -40891
00> -31242
01> -40899
00> -31235
01> -40892
00> -31254
01> -40887
00> -31272
01> -40902
00> -31268
01> -40927
00> -31261
01> -40952
00> -31266
01> -40951
00> -31292
01> -40941
00> -31305
01> -40937
00> -31298
01> -40945
00> -31284
01> -40956
00> -31284
01> -40956
00> -31302
01> -40956
00> -31320
01> -40963
00> -31319
01> -40981
00> -31312
01> -40998
00> -31309
01> -40980
00> -31321
01> -40957
00> -31329
01> -40959
00> -31313
01> -40967
00> -31301
01> -40989
00> -31304
01> -41004
00> -31317
01> -40989
00> -31343
01> -40992
00> -31351
01> -41011
00> -31342
01> -41024
00> -31341
01> -41021
00> -31358
01> -41012
00> -31384
01> -41035
00> -31391
01> -41070
00> -31389
01> -41099
00> -31379
01> -41083
00> -31356
01> -41019
00> -31339
01> -40976
00> -31328
01> -40992
00> -31305
01> -40999
00> -31299
01> -40990
00> -31329
01> -40994
00> -31368
01> -41016
00> -31355
01> -41024
00> -31356
01> -41044
00> -31355
01> -41033
00> -31357
01> -41006
00> -31361
01> -40988
00> -31363
01> -41012
00> -31356
01> -41034
00> -31351
01> -41026
00> -31377
01> -41031
00> -31399
01> -41050
00> -31404
01> -41068
00> -31400
01> -41081
00> -31398
01> -41087
00> -31417
01> -41101
00> -31436
01> -41111
00> -31419
01> -41121
00> -31397
01> -41122
00> -31401
01> -41116
00> -31421
01> -41095
00> -31432
01> -41094
00> -31415
01> -41098
00> -31394
01> -41106
00> -31402
01> -41114
00> -31426
01> -41105
00> -31436
01> -41092
00> -31431
01> -41109
00> -31409
01> -41129
00> -31392
01> -41111
00> -31417
01> -41091
00> -31435
01> -41088
00> -31425
01> -41096
00> -31412
01> -41115
00> -31407
01> -41119
00> -31414
01> -41111
00> -31422
01> -41109
00> -31417
01> -41129
00> -31402
01> -41143
00> -31397
01> -41139
00> -31407
01> -41128
00> -31410
01> -41126
00> -31401
01> -41137
00> -31385
01> -41148
00> -31376
01> -41142
00> -31378
01> -41122
00> -31381
01> -41110
00> -31382
01> -41134
00> -31371
01> -41145
00> -31366
01> -41144
00> -31386
01> -41137
00> -31404
01> -41129
00> -31382
01> -41130
00> -31361
01> -41136
00> -31361
01> -41140
00> -31376
01> -41135
00> -31396
01> -41141
00> -31391
01> -41161
00> -31368
01> -41176
00> -31353
01> -41167
00> -31372
01> -41159
00> -31392
01> -41167
00> -31390
01> -41187
00> -31371
01> -41194
00> -31368
01> -41206
00> -31384
01> -41204
00> -31389
01> -41191
00> -31372
01> -41190
00> -31351
01> -41201
00> -31340
01> -41191
00> -31351
01> -41184
00> -31371
01> -41196
00> -31364
01> -41202
00> -31340
01> -41207
00> -31333
01> -41204
00> -31351
01> -41187
00> -31369
01> -41182
00> -31368
01> -41195
00> -31349
01> -41204
00> -31344
01> -41206
00> -31348
01> -41195
00> -31348
01> -41171
00> -31338
01> -41178
00> -31324
01> -41194
00> -31326
01> -41204
00> -31351
01> -41212
00> -31379
01> -41227
00> -31366
01> -41228
00> -31337
01> -41247
00> -31326
01> -41252
00> -31361
01> -41264
00> -31374
01> -41263
00> -31338
01> -41249
00> -31299
01> -41244
00> -31297
01> -41245
00> -31317
01> -41245
00> -31332
01> -41247
00> -31329
01> -41261
00> -31274
01> -41231
00> -31263
01> -41222
00> -31284
01> -41222
00> -31299
01> -41223
00> -31287
01> -41232
00> -31264
01> -41243
00> -31251
01> -41235
00> -31245
01> -41214
00> -31265
01> -41219
00> -31262
01> -41243
00> -31222
01> -41229
00> -31215
01> -41237
00> -31224
01> -41229
00> -31228
01> -41216
00> -31218
01> -41214
00> -31194
01> -41216
00> -31186
01> -41219
00> -31208
01> -41216
00> -31227
01> -41219
00> -31242
01> -41254
00> -31210
01> -41253
00> -31191
01> -41242
00> -31200
01> -41237
00> -31214
01> -41242
00> -31195
01> -41228
00> -31154
01> -41202
00> -31171
01> -41234
00> -31200
01> -41258
00> -31211
01> -41267
00> -31193
01> -41254
00> -31151
01> -41242
00> -31151
01> -41257
00> -31166
01> -41254
00> -31196
01> -41277
00> -31195
01> -41281
00> -31170
01> -41281
00> -31151
01> -41269
00> -31156
01> -41246
00> -31182
01> -41263
00> -31184
01> -41280
00> -31165
01> -41297
00> -31141
01> -41281
00> -31154
01> -41263
00> -31186
01> -41283
00> -31162
01> -41258
00> -31134
01> -41259
00> -31123
01> -41264
00> -31136
01> -41267
00> -31166
01> -41280
00> -31156
01> -41263
00> -31122
01> -41250
00> -31119
01> -41252
00> -31137
01> -41239
00> -31145
01> -41230
00> -31147
01> -41259
00> -31121
01> -41245
00> -31105
01> -41243
00> -31123
01> -41253
00> -31141
01> -41252
00> -31142
01> -41272
00> -31113
01> -41291
00> -31115
01> -41286
00> -31144
01> -41296
00> -31139
01> -41274
00> -31135
01> -41264
00> -31129
01> -41287
00> -31111
01> -41261
00> -31164
01> -41291
00> -31185
01> -41274
00> -31184
01> -41275
00> -31179
01> -41286
00> -31186
01> -41279
00> -31225
01> -41278
00> -31235
01> -41262
00> -31224
01> -41249
00> -31211
01> -41247
00> -31208
01> -41237
00> -31237
01> -41237
00> -31257
01> -41225
00> -31246
01> -41212
00> -31242
01> -41227
00> -31253
01> -41252
00> -31269
01> -41262
00> -31283
01> -41262
00> -31281
01> -41270
00> -31293
01> -41304
00> -31291
01> -41294
00> -31294
01> -41281
00> -31332
01> -41294
00> -31341
01> -41306
00> -31323
01> -41303
00> -31343
01> -41327
00> -31360
01> -41304
00> -31377
01> -41286
00> -31391
01> -41303
00> -31364
01> -41293
00> -31347
01> -41274
00> -31366
01> -41275
00> -31391
01> -41281
00> -31390
01> -41289
00> -31376
01> -41296
00> -31389
01> -41294
00> -31402
01> -41268
00> -31418
01> -41262
00> -31417
01> -41266
00> -31415
01> -41296
00> -31412
01> -41307
00> -31423
01> -41306
00> -31429
01> -41296
00> -31419
01> -41289
00> -31431
01> -41332
00> -31437
01> -41349
00> -31454
01> -41341
00> -31499
01> -41367
00> -31499
01> -41369
00> -31488
01> -41379
00> -31467
01> -41371
00> -31491
01> -41366
00> -31515
01> -41366
00> -31522
01> -41378
00> -31478
01> -41351
00> -31461
01> -41345
00> -31479
01> -41333
00> -31517
01> -41354
00> -31524
01> -41367
00> -31515
01> -41386
00> -31489
01> -41373
00> -31502
01> -41359
00> -31527
01> -41363
00> -31536
01> -41387
00> -31532
01> -41407
00> -31499
01> -41368
00> -31502
01> -41352
00> -31511
01> -41347
00> -31518
01> -41359
00> -31518
01> -41384
00> -31527
01> -41404
00> -31552
01> -41415
00> -31559
01> -41394
00> -31572
01> -41404
00> -31554
01> -41410
00> -31550
01> -41417
00> -31574
01> -41407
00> -31590
01> -41396
00> -31597
01> -41412
00> -31589
01> -41436
00> -31574
01> -41418
00> -31581
01> -41400
00> -31596
01> -41379
00> -31604
01> -41406
00> -31582
01> -41419
00> -31591
01> -41442
00> -31616
01> -41452
00> -31650
01> -41476
00> -31666
01> -41512
00> -31636
01> -41495
00> -31622
01> -41492
00> -31640
01> -41487
00> -31662
01> -41472
00> -31669
01> -41481
00> -31644
01> -41495
00> -31629
01> -41486
00> -31659
01> -41496
00> -31693
01> -41497
00> -31697
01> -41506
00> -31683
01> -41526
00> -31674
01> -41524
00> -31694
01> -41526
00> -31699
01> -41491
00> -31692
01> -41481
00> -31671
01> -41482
00> -31663
01> -41488
00> -31685
01> -41498
00> -31713
01> -41509
00> -31708
01> -41511
00> -31667
01> -41495
00> -31647
01> -41481
00> -31648
01> -41471
00> -31669
01> -41463
00> -31681
01> -41462
00> -31669
01> -41468
00> -31676
01> -41489
00> -31682
01> -41477
00> -31709
01> -41482
00> -31702
01> -41479
00> -31672
01> -41487
00> -31654
01> -41479
00> -31681
01> -41481
00> -31716
01> -41478
00> -31703
01> -41464
00> -31679
01> -41467
00> -31669
01> -41464
00> -31686
01> -41456
00> -31709
01> -41449
00> -31717
01> -41454
00> -31687
01> -41441
00> -31673
01> -41450
00> -31674
01> -41429
00> -31687
01> -41416
00> -31692
01> -41425
00> -31681
01> -41457
00> -31653
01> -41438
00> -31658
01> -41416
00> -31680
01> -41409
00> -31694
01> -41427
00> -31691
01> -41450
00> -31655
01> -41430
00> -31655
01> -41412
00> -31678
01> -41407
00> -31674
01> -41416
00> -31647
01> -41414
00> -31624
01> -41404
00> -31626
01> -41383
00> -31655
01> -41385
00> -31656
01> -41392
00> -31617
01> -41373
00> -31594
01> -41356
00> -31614
01> -41367
00> -31644
01> -41382
00> -31639
01> -41370
00> -31607
01> -41354
00> -31592
01> -41367
00> -31610
01> -41379
00> -31623
01> -41364
00> -31612
01> -41346
00> -31588
01> -41351
00> -31583
01> -41375
00> -31591
01> -41365
00> -31602
01> -41344
00> -31606
01> -41354
00> -31573
01> -41355
00> -31552
01> -41356
00> -31539
01> -41339
00> -31552
01> -41337
00> -31548
01> -41346
00> -31524
01> -41351
00> -31496
01> -41334
00> -31499
01> -41316
00> -31521
01> -41316
00> -31527
01> -41328
00> -31478
01> -41301
00> -31451
01> -41290
00> -31468
01> -41314
00> -31486
01> -41317
00> -31488
01> -41330
00> -31445
01> -41318
00> -31417
01> -41327
00> -31429
01> -41332
00> -31451
01> -41318
00> -31462
01> -41324
00> -31437
01> -41334
00> -31421
01> -41350
00> -31441
01> -41371
00> -31464
01> -41378
00> -31447
01> -41373
00> -31411
01> -41365
00> -31388
01> -41361
00> -31399
01> -41370
00> -31408
01> -41361
00> -31403
01> -41362
00> -31386
01> -41375
00> -31367
01> -41362
00> -31372
01> -41341
00> -31396
01> -41342
00> -31381
01> -41333
00> -31346
01> -41331
00> -31336
01> -41343
00> -31356
01> -41350
00> -31381
01> -41369
00> -31374
01> -41372
00> -31352
01> -41376
00> -31338
01> -41386
00> -31336
01> -41385
00> -31346
01> -41383
00> -31348
01> -41397
00> -31322
01> -41402
00> -31292
01> -41391
00> -31286
01> -41372
00> -31306
01> -41365
00> -31319
01> -41376
00> -31304
01> -41397
00> -31287
01> -41400
00> -31285
01> -41396
00> -31296
01> -41391
00> -31306
01> -41409
00> -31283
01> -41419
00> -31256
01> -41409
00> -31264
01> -41413
00> -31277
01> -41417
00> -31273
01> -41414
00> -31244
01> -41417
00> -31224
01> -41420
00> -31217
01> -41405
00> -31230
01> -41401
00> -31236
01> -41415
00> -31212
01> -41426
00> -31199
01> -41438
00> -31207
01> -41429
00> -31229
01> -41431
00> -31228
01> -41440
00> -31198
01> -41451
00> -31159
01> -41442
00> -31161
01> -41434
00> -31194
01> -41456
00> -31201
01> -41476
00> -31172
01> -41479
00> -31147
01> -41472
00> -31152
01> -41468
00> -31161
01> -41459
00> -31159
01> -41469
00> -31135
01> -41481
00> -31113
01> -41485
00> -31109
01> -41469
00> -31121
01> -41459
00> -31128
01> -41471
00> -31104
01> -41469
00> -31084
01> -41460
00> -31109
01> -41472
00> -31141
01> -41490
00> -31137
01> -41496
00> -31097
01> -41487
00> -31067
01> -41478
00> -31074
01> -41488
00> -31099
01> -41506
00> -31112
01> -41511
00> -31094
01> -41522
00> -31079
01> -41530
00> -31085
01> -41527
00> -31089
01> -41509
00> -31082
01> -41496
00> -31061
01> -41500
00> -31042
01> -41495
00> -31064
01> -41497
00> -31096
01> -41499
00> -31104
01> -41502
00> -31090
01> -41509
00> -31072
01> -41504
00> -31069
01> -41484
00> -31087
01> -41471
00> -31085
01> -41462
00> -31054
01> -41451
00> -31044
01> -41453
00> -31049
01> -41444
00> -31084
01> -41440
00> -31125
01> -41465
00> -31124
01> -41483
00> -31107
01> -41471
00> -31115
01> -41454
00> -31134
01> -41438
00> -31170
01> -41481
00> -31176
01> -41511
00> -31161
01> -41496
00> -31176
01> -41480
00> -31203
01> -41459
00> -31240
01> -41473
00> -31254
01> -41501
00> -31236
01> -41490
00> -31249
01> -41469
00> -31313
01> -41504
00> -31352
01> -41530
00> -31332
01> -41535
00> -31296
01> -41507
00> -31316
01> -41507
00> -31365
01> -41519
00> -31377
01> -41518
00> -31351
01> -41511
00> -31341
01> -41518
00> -31368
01> -41529
00> -31411
01> -41539
00> -31416
01> -41536
00> -31389
01> -41527
00> -31383
01> -41540
00> -31397
01> -41551
00> -31406
01> -41532
00> -31412
01> -41535
00> -31420
01> -41577
00> -31407
01> -41583
00> -31402
01> -41559
00> -31418
01> -41552
00> -31415
01> -41518
00> -31416
01> -41532
00> -31409
01> -41538
00> -31434
01> -41559
00> -31437
01> -41529
00> -31445
01> -41526
00> -31461
01> -41569
00> -31456
01> -41569
00> -31445
01> -41534
00> -31466
01> -41530
00> -31494
01> -41564
00> -31486
01> -41576
00> -31466
01> -41572
00> -31466
01> -41555
00> -31508
01> -41570
00> -31534
01> -41611
00> -31516
01> -41632
00> -31462
01> -41591
00> -31451
01> -41559
00> -31521
01> -41619
00> -31528
01> -41626
00> -31482
01> -41592
00> -31466
01> -41576
00> -31507
01> -41601
00> -31529
01> -41599
00> -31529
01> -41595
00> -31492
01> -41582
00> -31483
01> -41584
00> -31492
01> -41581
00> -31529
01> -41595
00> -31541
01> -41604
00> -31518
01> -41600
00> -31501
01> -41599
00> -31507
01> -41595
00> -31516
01> -41590
00> -31518
01> -41592
00> -31520
01> -41604
00> -31516
01> -41604
00> -31514
01> -41597
00> -31534
01> -41599
00> -31531
01> -41601
00> -31514
01> -41602
00> -31509
01> -41610
00> -31514
01> -41608
00> -31529
01> -41613
00> -31528
01> -41615
00> -31518
01> -41620
00> -31496
01> -41610
00> -31490
01> -41576
00> -31526
01> -41577
00> -31551
01> -41601
00> -31539
01> -41616
00> -31513
01> -41608
00> -31522
01> -41602
00> -31541
01> -41596
00> -31540
01> -41597
00> -31516
01> -41607
00> -31506
01> -41626
00> -31515
01> -41618
00> -31539
01> -41611
00> -31552
01> -41621
00> -31532
01> -41617
00> -31501
01> -41605
00> -31503
01> -41605
00> -31543
01> -41624
00> -31555
01> -41632
00> -31539
01> -41636
00> -31523
01> -41625
00> -31513
01> -41601
00> -31529
01> -41587
00> -31541
01> -41596
00> -31542
01> -41617
00> -31531
01> -41616
00> -31539
01> -41610
00> -31558
01> -41609
00> -31552
01> -41611
00> -31533
01> -41609
00> -31517
01> -41607
00> -31533
01> -41609
00> -31565
01> -41624
00> -31570
01> -41635
00> -31559
01> -41638
00> -31542
01> -41636
00> -31533
01> -41621
00> -31557
01> -41615
00> -31576
01> -41634
00> -31571
01> -41667
00> -31552
01> -41657
00> -31550
01> -41636
00> -31562
01> -41627
00> -31571
01> -41624
00> -31565
01> -41648
00> -31544
01> -41650
00> -31541
01> -41646
00> -31557
01> -41632
00> -31568
01> -41627
00> -31548
01> -41626
00> -31529
01> -41621
00> -31532
01> -41601
00> -31557
01> -41592
00> -31561
01> -41599
00> -31532
01> -41594
00> -31503
01> -41577
00> -31511
01> -41570
00> -31541
01> -41580
00> -31553
01> -41587
00> -31535
01> -41584
00> -31506
01> -41575
00> -31509
01> -41568
00> -31531
01> -41568
00> -31550
01> -41585
00> -31529
01> -41589
00> -31507
01> -41586
00> -31518
01> -41587
00> -31552
01> -41592
00> -31570
01> -41596
00> -31559
01> -41599
00> -31532
01> -41586
00> -31523
01> -41565
00> -31543
01> -41552
00> -31547
01> -41548
00> -31529
01> -41549
00> -31512
01> -41550
00> -31512
01> -41541
00> -31534
01> -41534
00> -31541
01> -41527
00> -31526
01> -41529
00> -31497
01> -41525
00> -31492
01> -41512
00> -31503
01> -41497
00> -31507
01> -41491
00> -31494
01> -41493
00> -31472
01> -41501
00> -31471
01> -41501
00> -31499
01> -41510
00> -31498
01> -41512
00> -31483
01> -41513
00> -31454
01> -41509
00> -31440
01> -41488
00> -31462
01> -41486
00> -31481
01> -41503
00> -31463
01> -41516
00> -31424
01> -41507
00> -31420
01> -41502
00> -31454
01> -41504
00> -31470
01> -41509
00> -31447
01> -41519
00> -31429
01> -41524
00> -31427
01> -41529
00> -31441
01> -41525
00> -31456
01> -41532
00> -31452
01> -41554
00> -31437
01> -41567
00> -31442
01> -41569
00> -31469
01> -41577
00> -31483
01> -41580
00> -31469
01> -41604
00> -31447
01> -41607
00> -31455
01> -41603
00> -31486
01> -41611
00> -31491
01> -41617
00> -31470
01> -41619
00> -31469
01> -41645
00> -31484
01> -41657
00> -31496
01> -41644
00> -31502
01> -41646
00> -31502
01> -41662
00> -31494
01> -41677
00> -31502
01> -41679
00> -31528
01> -41667
00> -31536
01> -41667
00> -31529
01> -41680
00> -31515
01> -41686
00> -31511
01> -41678
00> -31547
01> -41695
00> -31574
01> -41721
00> -31564
01> -41727
00> -31534
01> -41712
00> -31532
01> -41692
00> -31567
01> -41702
00> -31586
01> -41709
00> -31572
01> -41723
00> -31556
01> -41741
00> -31554
01> -41737
00> -31567
01> -41714
00> -31577
01> -41711
00> -31577
01> -41739
00> -31565
01> -41749
00> -31560
01> -41729
00> -31576
01> -41708
00> -31587
01> -41710
00> -31577
01> -41722
00> -31559
01> -41726
00> -31562
01> -41714
00> -31583
01> -41708
00> -31589
01> -41703
00> -31569
01> -41711
00> -31552
01> -41727
00> -31561
01> -41737
00> -31586
01> -41731
00> -31599
01> -41727
00> -31589
01> -41733
00> -31572
01> -41732
00> -31577
01> -41732
00> -31594
01> -41736
00> -31615
01> -41749
00> -31593
01> -41752
00> -31567
01> -41757
00> -31576
01> -41764
00> -31609
01> -41766
00> -31622
01> -41763
00> -31606
01> -41770
00> -31581
01> -41771
00> -31578
01> -41757
00> -31592
01> -41743
00> -31604
01> -41747
00> -31598
01> -41751
00> -31569
01> -41739
00> -31572
01> -41745
00> -31601
01> -41761
00> -31607
01> -41751
00> -31600
01> -41759
00> -31584
01> -41761
00> -31592
01> -41762
00> -31609
01> -41757
00> -31622
01> -41744
00> -31611
01> -41741
00> -31596
01> -41753
00> -31600
01> -41753
00> -31616
01> -41744
00> -31622
01> -41747
00> -31609
01> -41757
00> -31599
01> -41775
00> -31597
01> -41775
00> -31604
01> -41759
00> -31608
01> -41747
00> -31606
01> -41759
00> -31599
01> -41773
00> -31607
01> -41769
00> -31625
01> -41752
00> -31638
01> -41757
00> -31619
01> -41758
00> -31592
01> -41756
00> -31594
01> -41757
00> -31608
01> -41747
00> -31621
01> -41751
00> -31619
01> -41760
00> -31599
01> -41756
00> -31604
01> -41761
00> -31616
01> -41748
00> -31627
01> -41752
00> -31623
01> -41756
00> -31601
01> -41752
00> -31602
01> -41754
00> -31630
01> -41756
00> -31634
01> -41750
00> -31624
01> -41749
00> -31597
01> -41741
00> -31596
01> -41738
00> -31622
01> -41743
00> -31637
01> -41750
00> -31622
01> -41749
00> -31607
01> -41754
00> -31601
01> -41747
00> -31619
01> -41734
00> -31649
01> -41741
00> -31646
01> -41754
00> -31632
01> -41764
00> -31623
01> -41748
00> -31621
01> -41724
00> -31641
01> -41734
00> -31637
01> -41742
00> -31628
01> -41748
00> -31624
01> -41744
00> -31642
01> -41738
00> -31642
01> -41736
00> -31619
01> -41729
00> -31605
01> -41736
00> -31614
01> -41741
00> -31640
01> -41726
00> -31661
01> -41718
00> -31644
01> -41716
00> -31617
01> -41717
00> -31615
01> -41712
00> -31639
01> -41710
00> -31658
01> -41714
00> -31646
01> -41717
00> -31627
01> -41719
00> -31617
01> -41706
00> -31626
01> -41701
00> -31644
01> -41715
00> -31626
01> -41716
00> -31612
01> -41718
00> -31611
01> -41709
00> -31622
01> -41700
00> -31641
01> -41709
00> -31640
01> -41721
00> -31608
01> -41715
00> -31592

00> -31619
01> -41689
00> -31643
01> -41710
00> -31636
01> -41732
00> -31612
01> -41728
00> -31601
01> -41705
00> -31621
01> -41694
00> -31640
01> -41697
00> -31649
01> -41726
00> -31624
01> -41729
00> -31609
01> -41712
00> -31637
01> -41717
00> -31664
01> -41729
00> -31652
01> -41727
00> -31628
01> -41712
00> -31621
01> -41706
00> -31641
01> -41715
00> -31666
01> -41731
00> -31653
01> -41733
00> -31629
01> -41737
00> -31622
01> -41729
00> -31635
01> -41715
00> -31643
01> -41706
00> -31640
01> -41717
00> -31636
01> -41736
00> -31637
01> -41738
00> -31649
01> -41727
00> -31654
01> -41712
00> -31644
01> -41711
00> -31621
01> -41704
00> -31616
01> -41704
00> -31628
01> -41699
00> -31644
01> -41706
00> -31646
01> -41727
00> -31626
01> -41736
00> -31619
01> -41719
00> -31636
01> -41711
00> -31644
01> -41703
00> -31634
01> -41710
00> -31624
01> -41724
00> -31627
01> -41726
00> -31651
01> -41721
00> -31669
01> -41722
00> -31651
01> -41722
00> -31623
01> -41720
00> -31620
01> -41714
00> -31644
01> -41719
00> -31667
01> -41719
00> -31659
01> -41729
00> -31633
01> -41730
00> -31633
01> -41725
00> -31657
01> -41722
00> -31661
01> -41711
00> -31645
01> -41712
00> -31632
01> -41726
00> -31629
01> -41724
00> -31658
01> -41731
00> -31670
01> -41724
00> -31664
01> -41729
00> -31644
01> -41745
00> -31633
01> -41736
00> -31651
01> -41723
00> -31652
01> -41704
00> -31649
01> -41712
00> -31637
01> -41730
00> -31624
01> -41724
00> -31642
01> -41701
00> -31654
01> -41698
00> -31647
01> -41712
00> -31626
01> -41724
00> -31624
01> -41719
00> -31651
01> -41707
00> -31673
01> -41704
00> -31653
01> -41702
00> -31626
01> -41687
00> -31620
01> -41696
00> -31637
01> -41693
00> -31652
01> -41692
00> -31657
01> -41697
00> -31627
01> -41689
00> -31628
01> -41691
00> -31644
01> -41689
00> -31660
01> -41693
00> -31656
01> -41712
00> -31631
01> -41719
00> -31621
01> -41706
00> -31646
01> -41696
00> -31650
01> -41675
00> -31637
01> -41669
00> -31625
01> -41677
00> -31631
01> -41681
00> -31651
01> -41692
00> -31655
01> -41692
00> -31642
01> -41691
00> -31621
01> -41680
00> -31613
01> -41669
00> -31626
01> -41651
00> -31641
01> -41654
00> -31629
01> -41661
00> -31614
01> -41679
00> -31604
01> -41685
00> -31617
01> -41676
00> -31641
01> -41669
00> -31635
01> -41682
00> -31605
01> -41691
00> -31596
01> -41679
00> -31621
01> -41674
00> -31647
01> -41681
00> -31631
01> -41676
00> -31598
01> -41664
00> -31584
01> -41641
00> -31602
01> -41632
00> -31620
01> -41631
00> -31614
01> -41638
00> -31596
01> -41647
00> -31579
01> -41621
00> -31591
01> -41597
00> -31599
01> -41584
00> -31586
01> -41582
00> -31555
01> -41579
00> -31544
01> -41567
00> -31566
01> -41561
00> -31581
01> -41556
00> -31574
01> -41554
00> -31537
01> -41547
00> -31521
01> -41542
00> -31537
01> -41541
00> -31554
01> -41547
00> -31553
01> -41571
00> -31516
01> -41574
00> -31498
01> -41563
00> -31508
01> -41556
00> -31532
01> -41557
00> -31532
01> -41577
00> -31511
01> -41594
00> -31494
01> -41587
00> -31502
01> -41588
00> -31514
01> -41584
00> -31510
01> -41592
00> -31477
01> -41592
00> -31464
01> -41586
00> -31490
01> -41587
00> -31504
01> -41585
00> -31488
01> -41596
00> -31469
01> -41608
00> -31467
01> -41606
00> -31484
01> -41589
00> -31506
01> -41590
00> -31503
01> -41607
00> -31496
01> -41622
00> -31504
01> -41633
00> -31519
01> -41630
00> -31537
01> -41637
00> -31548
01> -41656
00> -31534
01> -41663
00> -31526
01> -41650
00> -31542
01> -41649
00> -31569
01> -41666
00> -31567
01> -41669
00> -31532
01> -41662
00> -31516
01> -41638
00> -31533
01> -41621
00> -31556
01> -41642
00> -31554
01> -41664
00> -31527
01> -41665
00> -31507
01> -41648
00> -31525
01> -41637
00> -31546
01> -41626
00> -31534
01> -41612
00> -31511
01> -41612
00> -31511
01> -41619
00> -31534
01> -41622
00> -31550
01> -41628
00> -31536
01> -41629
00> -31517
01> -41627
00> -31515
01> -41631
00> -31535
01> -41633
00> -31552
01> -41627
00> -31551
01> -41637
00> -31532
01> -41641
00> -31515
01> -41635
00> -31532
01> -41636
00> -31553
01> -41637
00> -31547
01> -41639
00> -31531
01> -41646
00> -31524
01> -41635
00> -31550
01> -41636
00> -31565
01> -41627
00> -31561
01> -41639
00> -31543
01> -41642
00> -31549
01> -41637
00> -31562
01> -41626
00> -31571
01> -41622
00> -31566
01> -41637
00> -31533
01> -41636
00> -31524
01> -41632
00> -31547
01> -41636
00> -31579
01> -41651
00> -31574
01> -41652
00> -31545
01> -41647
00> -31538
01> -41649
00> -31557
01> -41643
00> -31585
01> -41644
00> -31586
01> -41647
00> -31556
01> -41642
00> -31538
01> -41639
00> -31561
01> -41636
00> -31584
01> -41639
00> -31578
01> -41636
00> -31560
01> -41634
00> -31543
01> -41619
00> -31564
01> -41612
00> -31583
01> -41612
00> -31582
01> -41626
00> -31559
01> -41639
00> -31546
01> -41644
00> -31557
01> -41632
00> -31575
01> -41628
00> -31578
01> -41634
00> -31557
01> -41638
00> -31538
01> -41621
00> -31555
01> -41610
00> -31586
01> -41614
00> -31597
01> -41624
00> -31575
01> -41636
00> -31561
01> -41632
00> -31573
01> -41625
00> -31586
01> -41623
00> -31595
01> -41632
00> -31575
01> -41628
00> -31564
01> -41627
00> -31571
01> -41622
00> -31589
01> -41619
00> -31576
01> -41611
00> -31557
01> -41620
00> -31554
01> -41629
00> -31562
01> -41609
00> -31579
01> -41602
00> -31587
01> -41615
00> -31559
01> -41621
00> -31544
01> -41617
00> -31567
01> -41615
00> -31588
01> -41612
00> -31586
01> -41624
00> -31549
01> -41622
00> -31534
01> -41617
00> -31559
01> -41621
00> -31584
01> -41627
00> -31586
01> -41626
00> -31566
01> -41631
00> -31558
01> -41634
00> -31568
01> -41627
00> -31580
01> -41611
00> -31582
01> -41612
00> -31564
01> -41619
00> -31559
01> -41629
00> -31574
01> -41626
00> -31594
01> -41614
00> -31591
01> -41614
00> -31568
01> -41616
00> -31555
01> -41611
00> -31556
01> -41582
00> -31570
01> -41586
00> -31575
01> -41602
00> -31551
01> -41599
00> -31537
01> -41599
00> -31549
01> -41597
00> -31569
01> -41596
00> -31571
01> -41604
00> -31554
01> -41607
00> -31539
01> -41599
00> -31554
01> -41591
00> -31582
01> -41595
00> -31576
01> -41594
00> -31552
01> -41594
00> -31537
01> -41606
00> -31544
01> -41596
00> -31569
01> -41596
00> -31571
01> -41602
00> -31544
01> -41602
00> -31527
01> -41590
00> -31529
01> -41564
00> -31548
01> -41559
00> -31549
01> -41567
00> -31531
01> -41566
00> -31514
01> -41544
00> -31523
01> -41534
00> -31541
01> -41536
00> -31539
01> -41534
00> -31514
01> -41530
00> -31507
01> -41541
00> -31526
01> -41544
00> -31539
01> -41530
00> -31539
01> -41532
00> -31517
01> -41549
00> -31503
01> -41559
00> -31515
01> -41546
00> -31545
01> -41546
00> -31551
01> -41557
00> -31522
01> -41552
00> -31494
01> -41543
00> -31509
01> -41537
00> -31541
01> -41544
00> -31544
01> -41551
00> -31528
01> -41559
00> -31506
01> -41536
00> -31514
01> -41517
00> -31528
01> -41503
00> -31514
01> -41492
00> -31497
01> -41494
00> -31481
01> -41488
00> -31482
01> -41461
00> -31504
01> -41447
00> -31512
01> -41456
00> -31493
01> -41463
00> -31476
01> -41467
00> -31480
01> -41464
00> -31502
01> -41474
00> -31505
01> -41491
00> -31477
01> -41494
00> -31459
01> -41489
00> -31474
01> -41489
00> -31491
01> -41493
00> -31496
01> -41516
00> -31492
01> -41540
00> -31475
01> -41535
00> -31487
01> -41521
00> -31505
01> -41515
00> -31510
01> -41529
00> -31500
01> -41546
00> -31484
01> -41537
00> -31502
01> -41528
00> -31534
01> -41531
00> -31529
01> -41531
00> -31502
01> -41538
00> -31491
01> -41537
00> -31504
01> -41531
00> -31522
01> -41538
00> -31522
01> -41552
00> -31509
01> -41564
00> -31506
01> -41565
00> -31513
01> -41551
00> -31537
01> -41546
00> -31547
01> -41561
00> -31538
01> -41581
00> -31530
01> -41589
00> -31547
01> -41596
00> -31576
01> -41603
00> -31577
01> -41613
00> -31553
01> -41611
00> -31540
01> -41601
00> -31553
01> -41599
00> -31572
01> -41605
00> -31572
01> -41606
00> -31553
01> -41605
00> -31534
01> -41596
00> -31550
01> -41588
00> -31577
01> -41583
00> -31587
01> -41600
00> -31569
01> -41603
00> -31552
01> -41596
00> -31551
01> -41590
00> -31571
01> -41597
00> -31576
01> -41607
00> -31558
01> -41609
00> -31549
01> -41606
00> -31566
01> -41603
00> -31589
01> -41608
00> -31597
01> -41626
00> -31571
01> -41637
00> -31549
01> -41629
00> -31563
01> -41627
00> -31589
01> -41623
00> -31602
01> -41624
00> -31580
01> -41629
00> -31561
01> -41634
00> -31567
01> -41629
00> -31580
01> -41621
00> -31587
01> -41629
00> -31568
01> -41639
00> -31559
01> -41642
00> -31576
01> -41639
00> -31595
01> -41634
00> -31596
01> -41637
00> -31581
01> -41642
00> -31569
01> -41640
00> -31572
01> -41636
00> -31591
01> -41631
00> -31601
01> -41640
00> -31585
01> -41652
00> -31580
01> -41652
00> -31582
01> -41640
00> -31585
01> -41623
00> -31592
01> -41629
00> -31579
01> -41644
00> -31563
01> -41642
00> -31574
01> -41636
00> -31593
01> -41632
00> -31596
01> -41644
00> -31568
01> -41647
00> -31552
01> -41641
00> -31562
01> -41623
00> -31575
01> -41615
00> -31576
01> -41617
00> -31564
01> -41631
00> -31559
01> -41647
00> -31557
01> -41643
00> -31572
01> -41645
00> -31572
01> -41640
00> -31564
01> -41656
00> -31565
01> -41676
00> -31577
01> -41679
00> -31596
01> -41662
00> -31576
01> -41633
00> -31534
01> -41611
00> -31524
01> -41609
00> -31539
01> -41607
00> -31564
01> -41619
00> -31574
01> -41636
00> -31565
01> -41642
00> -31537
01> -41626
00> -31528
01> -41594
00> -31561
01> -41601
00> -31581
01> -41624
00> -31554
01> -41622
00> -31535
01> -41611
00> -31546
01> -41600
00> -31570
01> -41602
00> -31570
01> -41601
00> -31564
01> -41618
00> -31556
01> -41634
00> -31550
01> -41621
00> -31568
01> -41610
00> -31583
01> -41612
00> -31580
01> -41625
00> -31571
01> -41628
00> -31582
01> -41627
00> -31607
01> -41642
00> -31613
01> -41656
00> -31592
01> -41652
00> -31585
01> -41648
00> -31595
01> -41644
00> -31614
01> -41646
00> -31619
01> -41639
00> -31599
01> -41637
00> -31584
01> -41637
00> -31586
01> -41614
00> -31597
01> -41589
00> -31594
01> -41576
00> -31574
01> -41576
00> -31556
01> -41566
00> -31547
01> -41547
00> -31569
01> -41551
00> -31576
01> -41555
00> -31548
01> -41547
00> -31517
01> -41539
00> -31519
01> -41529
00> -31547
01> -41534
00> -31547
01> -41522
00> -31528
01> -41520
00> -31511
01> -41515
00> -31521
01> -41513
00> -31547
01> -41519
00> -31559
01> -41520
00> -31534
01> -41509
00> -31512
01> -41500
00> -31516
01> -41476
00> -31540
01> -41472
00> -31533
01> -41463
00> -31518
01> -41470
00> -31509
01> -41469
00> -31504
01> -41441
00> -31518
01> -41420
00> -31524
01> -41420
00> -31515
01> -41435
00> -31509
01> -41437
00> -31509
01> -41427
00> -31534
01> -41432
00> -31546
01> -41442
00> -31536
01> -41457
00> -31514
01> -41448
00> -31517
01> -41420
00> -31547
01> -41417
00> -31564
01> -41439
00> -31539
01> -41456
00> -31522
01> -41464
00> -31531
01> -41452
00> -31559
01> -41447
00> -31574
01> -41457
00> -31549
01> -41448
00> -31527
01> -41434
00> -31546
01> -41443
00> -31558
01> -41437
00> -31558
01> -41443
00> -31543
01> -41454
00> -31519
01> -41451
00> -31529
01> -41447
00> -31552
01> -41458
00> -31559
01> -41467
00> -31529
01> -41454
00> -31511
01> -41451
00> -31512
01> -41439
00> -31523
01> -41420
00> -31520
01> -41409
00> -31501
01> -41414
00> -31486
01> -41420
00> -31488
01> -41413
00> -31495
01> -41387
00> -31494
01> -41378
00> -31472
01> -41388
00> -31456
01> -41394
00> -31457
01> -41392
00> -31486
01> -41387
00> -31510
01> -41409
00> -31491
01> -41420
00> -31460
01> -41417
00> -31442
01> -41379
00> -31471
01> -41369
00> -31486
01> -41376
00> -31474
01> -41402
00> -31452
01> -41399
00> -31448
01> -41385
00> -31471
01> -41383
00> -31482
01> -41384
00> -31473
01> -41394
00> -31441
01> -41376
00> -31434
01> -41352
00> -31476
01> -41380
00> -31492
01> -41399
00> -31464
01> -41394
00> -31451
01> -41399
00> -31456
01> -41388
00> -31458
01> -41360
00> -31452
01> -41341
00> -31449
01> -41362
00> -31462
01> -41406
00> -31459
01> -41393
00> -31459
01> -41380
00> -31474
01> -41391
00> -31481
01> -41416
00> -31446
01> -41385
00> -31438
01> -41374
00> -31454
01> -41381
00> -31461
01> -41388
00> -31456
01> -41409
00> -31422
01> -41392
00> -31416
01> -41376
00> -31441
01> -41372
00> -31445
01> -41366
00> -31430
01> -41367
00> -31407
01> -41349
00> -31414
01> -41337
00> -31444
01> -41349
00> -31442
01> -41354
00> -31414
01> -41341
00> -31396
01> -41341
00> -31400
01> -41349
00> -31418
01> -41343
00> -31434
01> -41342
00> -31428
01> -41351
00> -31430
01> -41370
00> -31449
01> -41377
00> -31467
01> -41376
00> -31475
01> -41376
00> -31458
01> -41384
00> -31455
01> -41398
00> -31446
01> -41364
00> -31451
01> -41336
00> -31472
01> -41354
00> -31465
01> -41371
00> -31456
01> -41382
00> -31454
01> -41374
00> -31474
01> -41386
00> -31481
01> -41391
00> -31459
01> -41372
00> -31437
01> -41364
00> -31446
01> -41362
00> -31469
01> -41366
00> -31470
01> -41359
00> -31458
01> -41364
00> -31437
01> -41361
00> -31437
01> -41349
00> -31454
01> -41337
00> -31464
01> -41344
00> -31445
01> -41347
00> -31427
01> -41353
00> -31436
01> -41358
00> -31464
01> -41347
00> -31485
01> -41362
00> -31477
01> -41385
00> -31449
01> -41376
00> -31446
01> -41377
00> -31456
01> -41364
00> -31451
01> -41351
00> -31432
01> -41359
00> -31415
01> -41363
00> -31407
01> -41351
00> -31412
01> -41336
00> -31420
01> -41342
00> -31406
01> -41349
00> -31393
01> -41346
00> -31396
01> -41329
00> -31412
01> -41319
00> -31414
01> -41317
00> -31396
01> -41311
00> -31373
01> -41313
00> -31384
01> -41316
00> -31406
01> -41327
00> -31404
01> -41336
00> -31375
01> -41338
00> -31350
01> -41336
00> -31366
01> -41332
00> -31396
01> -41319
00> -31412
01> -41323
00> -31404
01> -41341
00> -31377
01> -41342
00> -31374
01> -41332
00> -31409
01> -41345
00> -31422
01> -41366
00> -31384
01> -41359
00> -31353
01> -41347
00> -31356
01> -41336
00> -31377
01> -41324
00> -31377
01> -41322
00> -31359
01> -41325
00> -31336
01> -41321
00> -31341
01> -41315
00> -31358
01> -41311
00> -31374
01> -41327
00> -31356
01> -41332
00> -31333
01> -41319
00> -31328
01> -41301
00> -31338
01> -41283
00> -31356
01> -41297
00> -31346
01> -41319
00> -31329
01> -41328
00> -31325
01> -41322
00> -31336
01> -41307
00> -31348
01> -41307
00> -31341
01> -41326
00> -31321
01> -41334
00> -31319
01> -41331
00> -31342
01> -41339
00> -31360
01> -41355
00> -31346
01> -41356
00> -31324
01> -41359
00> -31318
01> -41356
00> -31327
01> -41352
00> -31336
01> -41359
00> -31314
01> -41367
00> -31290
01> -41369
00> -31296
01> -41369
00> -31326
01> -41358
00> -31340
01> -41360
00> -31321
01> -41369
00> -31302
01> -41377
00> -31310
01> -41384
00> -31332
01> -41378
00> -31346
01> -41381
00> -31325
01> -41389
00> -31297
01> -41381
00> -31304
01> -41374
00> -31334
01> -41384
00> -31347
01> -41398
00> -31333
01> -41414
00> -31305
01> -41409
00> -31305
01> -41392
00> -31327
01> -41377
00> -31344
01> -41371
00> -31335
01> -41374
00> -31316
01> -41383
00> -31312
01> -41384
00> -31331
01> -41381
00> -31339
01> -41379
00> -31331
01> -41384
00> -31319
01> -41392
00> -31327
01> -41394
00> -31349
01> -41387
00> -31361
01> -41392
00> -31347
01> -41401
00> -31321
01> -41398
00> -31318
01> -41386
00> -31339
01> -41382
00> -31351
01> -41386
00> -31330
01> -41389
00> -31312
01> -41391
00> -31311
01> -41379
00> -31332
01> -41374
00> -31347
01> -41385
00> -31336
01> -41394
00> -31307
01> -41389
00> -31317
01> -41384
00> -31346
01> -41380
00> -31357
01> -41382
00> -31344
01> -41384
00> -31321
01> -41372
00> -31319
01> -41361
00> -31327
01> -41349
00> -31332
01> -41347
00> -31327
01> -41352
00> -31310
01> -41348
00> -31308
01> -41334
00> -31324
01> -41323
00> -31331
01> -41314
00> -31319
01> -41321
00> -31298
01> -41334
00> -31294
01> -41339
00> -31314
01> -41335
00> -31327
01> -41337
00> -31316
01> -41339
00> -31296
01> -41336
00> -31287
01> -41321
00> -31304
01> -41308
00> -31320
01> -41309
00> -31309
01> -41308
00> -31287
01> -41306
00> -31292
01> -41309
00> -31319
01> -41316
00> -31332
01> -41318
00> -31315
01> -41316
00> -31290
01> -41304
00> -31275
01> -41281
00> -31286
01> -41256
00> -31295
01> -41242
00> -31284
01> -41247
00> -31260
01> -41249
00> -31254
01> -41235
00> -31272
01> -41218
00> -31284
01> -41218
00> -31264
01> -41227
00> -31245
01> -41233
00> -31237
01> -41224
00> -31247
01> -41214
00> -31264
01> -41231
00> -31260
01> -41245
00> -31246
01> -41246
00> -31234
01> -41232
00> -31245
01> -41223
00> -31258
01> -41219
00> -31243
01> -41227
00> -31219
01> -41239
00> -31220
01> -41242
00> -31238
01> -41244
00> -31263
01> -41259
00> -31262
01> -41273
00> -31246
01> -41286
00> -31239
01> -41289
00> -31249
01> -41296
00> -31279
01> -41320
00> -31284
01> -41338
00> -31271
01> -41350
00> -31267
01> -41358
00> -31282
01> -41353
00> -31299
01> -41366
00> -31305
01> -41384
00> -31291
01> -41392
00> -31292
01> -41396
00> -31314
01> -41399
00> -31331
01> -41404
00> -31324
01> -41418
00> -31300
01> -41422
00> -31297
01> -41417
00> -31326
01> -41405
00> -31342
01> -41406
00> -31332
01> -41413
00> -31307
01> -41415
00> -31300
01> -41408
00> -31317
01> -41402
00> -31332
01> -41401
00> -31328
01> -41410
00> -31316
01> -41419
00> -31308
01> -41414
00> -31326
01> -41409
00> -31341
01> -41414
00> -31329
01> -41422
00> -31306
01> -41428
00> -31299
01> -41422
00> -31324
01> -41419
00> -31337
01> -41416
00> -31326
01> -41412
00> -31311
01> -41423
00> -31317
01> -41439
00> -31342
01> -41446
00> -31350
01> -41436
00> -31346
01> -41441
00> -31327
01> -41441
00> -31317
01> -41434
00> -31329
01> -41421
00> -31344
01> -41424
00> -31332
01> -41426
00> -31317
01> -41430
00> -31314
01> -41427
00> -31330
01> -41411
00> -31346
01> -41407
00> -31337
01> -41413
00> -31319
01> -41407
00> -31312
01> -41399
00> -31327
01> -41397
00> -31339
01> -41404
00> -31339
01> -41424
00> -31326
01> -41441
00> -31322
01> -41442
00> -31341
01> -41429
00> -31353
01> -41422
00> -31346
01> -41426
00> -31326
01> -41431
00> -31321
01> -41434
00> -31331
01> -41424
00> -31342
01> -41421
00> -31336
01> -41426
00> -31321
01> -41437
00> -31328
01> -41434
00> -31345
01> -41423
00> -31357
01> -41416
00> -31351
01> -41419
00> -31321
01> -41422
00> -31311
01> -41412
00> -31325
01> -41404
00> -31342
01> -41404
00> -31340
01> -41415
00> -31314
01> -41416
00> -31306
01> -41408
00> -31329
01> -41414
00> -31353
01> -41424
00> -31346
01> -41424
00> -31330
01> -41422
00> -31332
01> -41421
00> -31349
01> -41420
00> -31358
01> -41417
00> -31350
01> -41421
00> -31333
01> -41429
00> -31334
01> -41429
00> -31356
01> -41430
00> -31362
01> -41431
00> -31347
01> -41432
00> -31329
01> -41429
00> -31331
01> -41424
00> -31351
01> -41414
00> -31372
01> -41414
00> -31367
01> -41424
00> -31330
01> -41420
00> -31319
01> -41401
00> -31344
01> -41391
00> -31367
01> -41386
00> -31354
01> -41388
00> -31326
01> -41382
00> -31322
01> -41376
00> -31353
01> -41389
00> -31377
01> -41406
00> -31370
01> -41411
00> -31346
01> -41412
00> -31336
01> -41413
00> -31346
01> -41404
00> -31358
01> -41396
00> -31359
01> -41402
00> -31342
01> -41413
00> -31340
01> -41409
00> -31357
01> -41404
00> -31382
01> -41404
00> -31374
01> -41416
00> -31346
01> -41415
00> -31337
01> -41407
00> -31354
01> -41406
00> -31376
01> -41405
00> -31376
01> -41414
00> -31355
01> -41411
00> -31345
01> -41402
00> -31361
01> -41391
00> -31373
01> -41391
00> -31371
01> -41401
00> -31348
01> -41405
00> -31339
01> -41396
00> -31367
01> -41388
00> -31387
01> -41394
00> -31373
01> -41402
00> -31349
01> -41399
00> -31336
01> -41388
00> -31346
01> -41382
00> -31361
01> -41377
00> -31355
01> -41387
00> -31335
01> -41392
00> -31334
01> -41387
00> -31359
01> -41386
00> -31382
01> -41391
00> -31373
01> -41394
00> -31344
01> -41400
00> -31332
01> -41387
00> -31351
01> -41376
00> -31372
01> -41372
00> -31371
01> -41377
00> -31344
01> -41379
00> -31335
01> -41366
00> -31361
01> -41358
00> -31372
01> -41354
00> -31361
01> -41356
00> -31337
01> -41364
00> -31330
01> -41366
00> -31345
01> -41351
00> -31354
01> -41349
00> -31347
01> -41351
00> -31320
01> -41344
00> -31298
01> -41319
00> -31307
01> -41297
00> -31326
01> -41282
00> -31321
01> -41281
00> -31294
01> -41274
00> -31276
01> -41260
00> -31293
01> -41247
00> -31312
01> -41246
00> -31310
01> -41242
00> -31291
01> -41250
00> -31273
01> -41246
00> -31281
01> -41241
00> -31292
01> -41247
00> -31289
01> -41269
00> -31271
01> -41286
00> -31268
01> -41291
00> -31282
01> -41291
00> -31297
01> -41304
00> -31307
01> -41332
00> -31306
01> -41360
00> -31307
01> -41367
00> -31322
01> -41364
00> -31351
01> -41389
00> -31344
01> -41416
00> -31322
01> -41426
00> -31312
01> -41421
00> -31331
01> -41421
00> -31352
01> -41430
00> -31351
01> -41446
00> -31334
01> -41454
00> -31328
01> -41453
00> -31357
01> -41448
00> -31386
01> -41458
00> -31386
01> -41473
00> -31361
01> -41479
00> -31349
01> -41474
00> -31363
01> -41465
00> -31389
01> -41456
00> -31387
01> -41460
00> -31364
01> -41467
00> -31360
01> -41471
00> -31378
01> -41464
00> -31401
01> -41469
00> -31399
01> -41489
00> -31377
01> -41501
00> -31369
01> -41497
00> -31390
01> -41496
00> -31416
01> -41508
00> -31412
01> -41512
00> -31391
01> -41506
00> -31384
01> -41505
00> -31394
01> -41506
00> -31410
01> -41505
00> -31409
01> -41517
00> -31393
01> -41528
00> -31387
01> -41528
00> -31402
01> -41511
00> -31423
01> -41499
00> -31426
01> -41501
00> -31411
01> -41507
00> -31402
01> -41514
00> -31414
01> -41517
00> -31432
01> -41519
00> -31427
01> -41530
00> -31409
01> -41537
00> -31397
01> -41535
00> -31404
01> -41532
00> -31414
01> -41522
00> -31421
01> -41529
00> -31416
01> -41531
00> -31406
01> -41528
00> -31416
01> -41522
00> -31437
01> -41531
00> -31438
01> -41547
00> -31420
01> -41555
00> -31413
01> -41550
00> -31420
01> -41541
00> -31430
01> -41539
00> -31431
01> -41545
00> -31419
01> -41547
00> -31410
01> -41540
00> -31421
01> -41525
00> -31440
01> -41521
00> -31439
01> -41533
00> -31420
01> -41540
00> -31408
01> -41541
00> -31422
01> -41539
00> -31448
01> -41532
00> -31454
01> -41544
00> -31432
01> -41561
00> -31420
01> -41567
00> -31434
01> -41564
00> -31456
01> -41564
00> -31456
01> -41577
00> -31437
01> -41588
00> -31427
01> -41576
00> -31440
01> -41569
00> -31461
01> -41573
00> -31457
01> -41584
00> -31435
01> -41595
00> -31422
01> -41592
00> -31435
01> -41570
00> -31458
01> -41565
00> -31459
01> -41572
00> -31433
01> -41583
00> -31414
01> -41577
00> -31433
01> -41564
00> -31457
01> -41559
00> -31450
01> -41566
00> -31429
01> -41574
00> -31427
01> -41579
00> -31441
01> -41584
00> -31465
01> -41588
00> -31462
01> -41591
00> -31441
01> -41594
00> -31435
01> -41595
00> -31456
01> -41599
00> -31477
01> -41604
00> -31472
01> -41613
00> -31447
01> -41612
00> -31431
01> -41593
00> -31442
01> -41588
00> -31463
01> -41592
00> -31461
01> -41606
00> -31444
01> -41614
00> -31439
01> -41606
00> -31446
01> -41591
00> -31456
01> -41583
00> -31456
01> -41591
00> -31426
01> -41598
00> -31397
01> -41587
00> -31408
01> -41569
00> -31436
01> -41558
00> -31441
01> -41558
00> -31418
01> -41559
00> -31397
01> -41544
00> -31399
01> -41517
00> -31416
01> -41511
00> -31414
01> -41513
00> -31393
01> -41510
00> -31380
01> -41506
00> -31396
01> -41501
00> -31411
01> -41496
00> -31397
01> -41494
00> -31373
01> -41489
00> -31374
01> -41492
00> -31392
01> -41496
00> -31406
01> -41498
00> -31404
01> -41503
00> -31385
01> -41511
00> -31376
01> -41511
00> -31379
01> -41498
00> -31399
01> -41486
00> -31402
01> -41491
00> -31381
01> -41492
00> -31359
01> -41484
00> -31363
01> -41466
00> -31377
01> -41455
00> -31373
01> -41444
00> -31352
01> -41431
00> -31333
01> -41417
00> -31339
01> -41401
00> -31350
01> -41389
00> -31349
01> -41394
00> -31330
01> -41393
00> -31317
01> -41381
00> -31319
01> -41367
00> -31337
01> -41361
00> -31333
01> -41361
00> -31311
01> -41369
00> -31299
01> -41376
00> -31312
01> -41376
00> -31334
01> -41376
00> -31337
01> -41386
00> -31318
01> -41394
00> -31312
01> -41396
00> -31329
01> -41398
00> -31347
01> -41404
00> -31357
01> -41421
00> -31341
01> -41449
00> -31332
01> -41458
00> -31353
01> -41459
00> -31375
01> -41463
00> -31375
01> -41482
00> -31356
01> -41499
00> -31350
01> -41501
00> -31370
01> -41495
00> -31398
01> -41497
00> -31406
01> -41513
00> -31387
01> -41524
00> -31368
01> -41514
00> -31372
01> -41501
00> -31394
01> -41507
00> -31394
01> -41504
00> -31386
01> -41517
00> -31369
01> -41521
00> -31381
01> -41513
00> -31404
01> -41512
00> -31407
01> -41525
00> -31382
01> -41529
00> -31366
01> -41525
00> -31379
01> -41516
00> -31394
01> -41511
00> -31403
01> -41517
00> -31396
01> -41536
00> -31382
01> -41529
00> -31389
01> -41516
00> -31419
01> -41526
00> -31419
01> -41534
00> -31396
01> -41541
00> -31378
01> -41541
00> -31380
01> -41532
00> -31402
01> -41523
00> -31409
01> -41521
00> -31387
01> -41531
00> -31368
01> -41533
00> -31381
01> -41528
00> -31405
01> -41526
00> -31408
01> -41521
00> -31384
01> -41526
00> -31366
01> -41529
00> -31378
01> -41519
00> -31397
01> -41513
00> -31404
01> -41517
00> -31385
01> -41529
00> -31368
01> -41527
00> -31372
01> -41518
00> -31394
01> -41524
00> -31406
01> -41532
00> -31393
01> -41541
00> -31377
01> -41538
00> -31379
01> -41526
00> -31404
01> -41529
00> -31411
01> -41538
00> -31394
01> -41547
00> -31385
01> -41559
00> -31384
01> -41547
00> -31399
01> -41531
00> -31408
01> -41540
00> -31387
01> -41556
00> -31372
01> -41553
00> -31377
01> -41542
00> -31397
01> -41538
00> -31401
01> -41542
00> -31382
01> -41548
00> -31366
01> -41537
00> -31375
01> -41524
00> -31401
01> -41528
00> -31409
01> -41539
00> -31395
01> -41553
00> -31386
01> -41561
00> -31398
01> -41559
00> -31416
01> -41553
00> -31416
01> -41559
00> -31394
01> -41567
00> -31387
01> -41574
00> -31404
01> -41577
00> -31423
01> -41567
00> -31426
01> -41559
00> -31401
01> -41559
00> -31381
01> -41557
00> -31388
01> -41558
00> -31410
01> -41558
00> -31420
01> -41561
00> -31406
01> -41561
00> -31392
01> -41557
00> -31398
01> -41552
00> -31412
01> -41544
00> -31406
01> -41542
00> -31384
01> -41544
00> -31373
01> -41547
00> -31387
01> -41539
00> -31414
01> -41536
00> -31412
01> -41542
00> -31389
01> -41553
00> -31371
01> -41550
00> -31383
01> -41541
00> -31413
01> -41539
00> -31422
01> -41554
00> -31409
01> -41565
00> -31392
01> -41567
00> -31401
01> -41562
00> -31423
01> -41563
00> -31431
01> -41571
00> -31407
01> -41574
00> -31382
01> -41560
00> -31396
01> -41546
00> -31412
01> -41530
00> -31410
01> -41520
00> -31381
01> -41509
00> -31363
01> -41494
00> -31374
01> -41486
00> -31382
01> -41471
00> -31376
01> -41456
00> -31343
01> -41450
00> -31318
01> -41429
00> -31326
01> -41407
00> -31341
01> -41389
00> -31341
01> -41389
00> -31321
01> -41399
00> -31299
01> -41401
00> -31312
01> -41400
00> -31335
01> -41404
00> -31344
01> -41416
00> -31339
01> -41439
00> -31327
01> -41445
00> -31337
01> -41446
00> -31357
01> -41456
00> -31364
01> -41475
00> -31355
01> -41492
00> -31346
01> -41501
00> -31363
01> -41507
00> -31402
01> -41517
00> -31415
01> -41533
00> -31394
01> -41546
00> -31393
01> -41571
00> -31416
01> -41594
00> -31436
01> -41602
00> -31437
01> -41604
00> -31422
01> -41608
00> -31411
01> -41611
00> -31419
01> -41609
00> -31451
01> -41607
00> -31457
01> -41612
00> -31443
01> -41627
00> -31432
01> -41636
00> -31447
01> -41637
00> -31472
01> -41644
00> -31491
01> -41664
00> -31486
01> -41681
00> -31472
01> -41683
00> -31477
01> -41684
00> -31492
01> -41675
00> -31503
01> -41679
00> -31495
01> -41690
00> -31481
01> -41684
00> -31486
01> -41680
00> -31502
01> -41682
00> -31504
01> -41685
00> -31482
01> -41694
00> -31459
01> -41689
00> -31463
01> -41676
00> -31483
01> -41672
00> -31497
01> -41674
00> -31482
01> -41675
00> -31467
01> -41671
00> -31475
01> -41661
00> -31491
01> -41656
00> -31501
01> -41664
00> -31496
01> -41677
00> -31483
01> -41685
00> -31492
01> -41684
00> -31518
01> -41692
00> -31526
01> -41706
00> -31507
01> -41712
00> -31492
01> -41707
00> -31491
01> -41695
00> -31510
01> -41688
00> -31516
01> -41684
00> -31502
01> -41681
00> -31488
01> -41681
00> -31497
01> -41681
00> -31516
01> -41679
00> -31518
01> -41686
00> -31496
01> -41692
00> -31479
01> -41694
00> -31479
01> -41679
00> -31500
01> -41667
00> -31515
01> -41675
00> -31504
01> -41684
00> -31487
01> -41684
00> -31486
01> -41667
00> -31499
01> -41659
00> -31504
01> -41659
00> -31491
01> -41669
00> -31483
01> -41675
00> -31486
01> -41671
00> -31506
01> -41675
00> -31515
01> -41688
00> -31499
01> -41685
00> -31489
01> -41691
00> -31499
01> -41703
00> -31521
01> -41705
00> -31533
01> -41711
00> -31515
01> -41711
00> -31495
01> -41705
00> -31497
01> -41693
00> -31514
01> -41689
00> -31535
01> -41698
00> -31524
01> -41707
00> -31508
01> -41703
00> -31507
01> -41694
00> -31524
01> -41687
00> -31532
01> -41689
00> -31521
01> -41691
00> -31509
01> -41689
00> -31512
01> -41694
00> -31529
01> -41694
00> -31531
01> -41703
00> -31514
01> -41707
00> -31496
01> -41711
00> -31499
01> -41710
00> -31517
01> -41708
00> -31536
01> -41710
00> -31524
01> -41709
00> -31509
01> -41710
00> -31517
01> -41704
00> -31536
01> -41696
00> -31546
01> -41701
00> -31527
01> -41707
00> -31501
01> -41710
00> -31501
01> -41701
00> -31531
01> -41696
00> -31546
01> -41704
00> -31521
01> -41713
00> -31499
01> -41712
00> -31501
01> -41701
00> -31524
01> -41692
00> -31527
01> -41689
00> -31514
01> -41701
00> -31505
01> -41713
00> -31511
01> -41714
00> -31531
01> -41711
00> -31543
01> -41720
00> -31530
01> -41731
00> -31515
01> -41734
00> -31512
01> -41714
00> -31524
01> -41698
00> -31544
01> -41706
00> -31537
01> -41721
00> -31509
01> -41722
00> -31506
01> -41711
00> -31524
01> -41699
00> -31532
01> -41692
00> -31514
01> -41699
00> -31489
01> -41693
00> -31490
01> -41685
00> -31512
01> -41690
00> -31530
01> -41711
00> -31520
01> -41713
00> -31501
01> -41711
00> -31496
01> -41707
00> -31516
01> -41696
00> -31527
01> -41690
00> -31509
01> -41688
00> -31489
01> -41691
00> -31493
01> -41694
00> -31516
01> -41697
00> -31527
01> -41694
00> -31507
01> -41686
00> -31488
01> -41682
00> -31483
01> -41671
00> -31494
01> -41654
00> -31504
01> -41646
00> -31481
01> -41639
00> -31456
01> -41633
00> -31462
01> -41629
00> -31481
01> -41612
00> -31484
01> -41589
00> -31457
01> -41574
00> -31426
01> -41559
00> -31414
01> -41532
00> -31426
01> -41525
00> -31439
01> -41534
00> -31427
01> -41540
00> -31401
01> -41550
00> -31391
01> -41541
00> -31402
01> -41542
00> -31411
01> -41552
00> -31404
01> -41571
00> -31380
01> -41581
00> -31376
01> -41579
00> -31392
01> -41575
00> -31404
01> -41586
00> -31397
01> -41608
00> -31378
01> -41620
00> -31376
01> -41621
00> -31398
01> -41636
00> -31415
01> -41652
00> -31407
01> -41662
00> -31384
01> -41662
00> -31389
01> -41665
00> -31419
01> -41660
00> -31431
01> -41664
00> -31413
01> -41674
00> -31391
01> -41681
00> -31399
01> -41688
00> -31421
01> -41686
00> -31430
01> -41693
00> -31417
01> -41702
00> -31401
01> -41711
00> -31397
01> -41706
00> -31419
01> -41701
00> -31432
01> -41700
00> -31421
01> -41704
00> -31403
01> -41708
00> -31405
01> -41711
00> -31426
01> -41711
00> -31442
01> -41714
00> -31429
01> -41721
00> -31411
01> -41717
00> -31408
01> -41705
00> -31427
01> -41697
00> -31444
01> -41705
00> -31444
01> -41723
00> -31433
01> -41731
00> -31431
01> -41722
00> -31446
01> -41708
00> -31451
01> -41698
00> -31436
01> -41702
00> -31411
01> -41696
00> -31416
01> -41687
00> -31439
01> -41692
00> -31446
01> -41698
00> -31434
01> -41704
00> -31420
01> -41707
00> -31430
01> -41709
00> -31446
01> -41702
00> -31452
01> -41704
00> -31436
01> -41711
00> -31424
01> -41715
00> -31424
01> -41712
00> -31436
01> -41702
00> -31444
01> -41706
00> -31437
01> -41720
00> -31427
01> -41731
00> -31434
01> -41731
00> -31452
01> -41725
00> -31467
01> -41719
00> -31456
01> -41721
00> -31431
01> -41714
00> -31424
01> -41701
00> -31436
01> -41686
00> -31454
01> -41691
00> -31457
01> -41709
00> -31441
01> -41707
00> -31438
01> -41701
00> -31456
01> -41686
00> -31466
01> -41681
00> -31449
01> -41689
00> -31423
01> -41696
00> -31418
01> -41696
00> -31435
01> -41700
00> -31453
01> -41703
00> -31441
01> -41699
00> -31419
01> -41699
00> -31426
01> -41701
00> -31450
01> -41698
00> -31467
01> -41698
00> -31454
01> -41705
00> -31423
01> -41704
00> -31421
01> -41699
00> -31447
01> -41693
00> -31466
01> -41691
00> -31458
01> -41696
00> -31434
01> -41695
00> -31426
01> -41686
00> -31439
01> -41670
00> -31448
01> -41669
00> -31447
01> -41689
00> -31436
01> -41701
00> -31433
01> -41709
00> -31457
01> -41703
00> -31477
01> -41706
00> -31463
01> -41707
00> -31442
01> -41711
00> -31437
01> -41707
00> -31448
01> -41694
00> -31454
01> -41698
00> -31449
01> -41708
00> -31434
01> -41710
00> -31432
01> -41707
00> -31447
01> -41696
00> -31455
01> -41696
00> -31449
01> -41702
00> -31429
01> -41706
00> -31426
01> -41694
00> -31446
01> -41685
00> -31464
01> -41687
00> -31458
01> -41699
00> -31437
01> -41699
00> -31433
01> -41688
00> -31444
01> -41670
00> -31462
01> -41674
00> -31452
01> -41688
00> -31435
01> -41704
00> -31429
01> -41701
00> -31443
01> -41694
00> -31456
01> -41694
00> -31446
01> -41702
00> -31422
01> -41696
00> -31418
01> -41694
00> -31441
01> -41689
00> -31454
01> -41688
00> -31448
01> -41690
00> -31433
01> -41695
00> -31432
01> -41697
00> -31445
01> -41691
00> -31461
01> -41691
00> -31450
01> -41693
00> -31424
01> -41689
00> -31411
01> -41671
00> -31427
01> -41657
00> -31445
01> -41649
00> -31440
01> -41652
00> -31421
01> -41662
00> -31411
01> -41653
00> -31436
01> -41652
00> -31458
01> -41644
00> -31447
01> -41639
00> -31417
01> -41633
00> -31403
01> -41612
00> -31416
01> -41596
00> -31431
01> -41596
00> -31413
01> -41597
00> -31382
01> -41589
00> -31367
01> -41568
00> -31374
01> -41549
00> -31387
01> -41539
00> -31377
01> -41534
00> -31356
01> -41532
00> -31351
01> -41525
00> -31374
01> -41520
00> -31402
01> -41523
00> -31409
01> -41537
00> -31400
01> -41544
00> -31397
01> -41542
00> -31424
01> -41541
00> -31451
01> -41554
00> -31454
01> -41564
00> -31437
01> -41576
00> -31428
01> -41567
00> -31441
01> -41572
00> -31469
01> -41596
00> -31474
01> -41617
00> -31464
01> -41636
00> -31466
01> -41649
00> -31493
01> -41652
00> -31522
01> -41667
00> -31525
01> -41692
00> -31506
01> -41704
00> -31511
01> -41711
00> -31536
01> -41721
00> -31555
01> -41728
00> -31550
01> -41732
00> -31530
01> -41746
00> -31529
01> -41749
00> -31547
01> -41744
00> -31559
01> -41740
00> -31550
01> -41739
00> -31535
01> -41750
00> -31537
01> -41764
00> -31557
01> -41764
00> -31572
01> -41756
00> -31569
01> -41757
00> -31551
01> -41750
00> -31550
01> -41744
00> -31566
01> -41732
00> -31572
01> -41728
00> -31559
01> -41734
00> -31544
01> -41741
00> -31540
01> -41737
00> -31559
01> -41728
00> -31580
01> -41732
00> -31575
01> -41746
00> -31556
01> -41755
00> -31551
01> -41742
00> -31566
01> -41730
00> -31587
01> -41733
00> -31581
01> -41737
00> -31555
01> -41737
00> -31543
01> -41727
00> -31566
01> -41729
00> -31584
01> -41740
00> -31571
01> -41749
00> -31549
01> -41754
00> -31542
01> -41751
00> -31552
01> -41730
00> -31564
01> -41720
00> -31565
01> -41726
00> -31552
01> -41741
00> -31554
01> -41739
00> -31570
01> -41731
00> -31586
01> -41731
00> -31577
01> -41731
00> -31556
01> -41736
00> -31556
01> -41736
00> -31575
01> -41731
00> -31588
01> -41726
00> -31576
01> -41732
00> -31554
01> -41736
00> -31546
01> -41729
00> -31552
01> -41724
00> -31564
01> -41723
00> -31561
01> -41729
00> -31545
01> -41739
00> -31542
01> -41741
00> -31554
01> -41737
00> -31573
01> -41736
00> -31575
01> -41744
00> -31556
01> -41752
00> -31544
01> -41743
00> -31550
01> -41731
00> -31569
01> -41732
00> -31569
01> -41744
00> -31556
01> -41753
00> -31557
01> -41746
00> -31578
01> -41736
00> -31594
01> -41736
00> -31593
01> -41742
00> -31579
01> -41750
00> -31570
01> -41744
00> -31584
01> -41737
00> -31594
01> -41732
00> -31585
01> -41734
00> -31571
01> -41735
00> -31567
01> -41735
00> -31578
01> -41733
00> -31591
01> -41734
00> -31584
01> -41742
00> -31567
01> -41744
00> -31557
01> -41744
00> -31571
01> -41741
00> -31591
01> -41739
00> -31592
01> -41744
00> -31569
01> -41746
00> -31557
01> -41745
00> -31574
01> -41752
00> -31594
01> -41762
00> -31596
01> -41767
00> -31577
01> -41767
00> -31562
01> -41762
00> -31578
01> -41754
00> -31605
01> -41757
00> -31604
01> -41764
00> -31573
01> -41760
00> -31567
01> -41755
00> -31591
01> -41757
00> -31612
01> -41761
00> -31608
01> -41764
00> -31581
01> -41756
00> -31570
01> -41751
00> -31584
01> -41747
00> -31599
01> -41739
00> -31592
01> -41747
00> -31574
01> -41756
00> -31566
01> -41749
00> -31581
01> -41742
00> -31602
01> -41740
00> -31603
01> -41752
00> -31577
01> -41768
00> -31566
01> -41766
00> -31589
01> -41761
00> -31614
01> -41762
00> -31603
01> -41771
00> -31581
01> -41768
00> -31576
01> -41761
00> -31584
01> -41746
00> -31604
01> -41739
00> -31602
01> -41741
00> -31579
01> -41748
00> -31572
01> -41740
00> -31586
01> -41728
00> -31596
01> -41729
00> -31586
01> -41730
00> -31567
01> -41731
00> -31558
01> -41724
00> -31563
01> -41710
00> -31576
01> -41706
00> -31576
01> -41711
00> -31552
01> -41702
00> -31531
01> -41687
00> -31538
01> -41669
00> -31552
01> -41662
00> -31546
01> -41657
00> -31524
01> -41649
00> -31510
01> -41637
00> -31521
01> -41632
00> -31537
01> -41631
00> -31531
01> -41629
00> -31516
01> -41625
00> -31507
01> -41611
00> -31508
01> -41595
00> -31512
01> -41579
00> -31507
01> -41583
00> -31476
01> -41581
00> -31447
01> -41556
00> -31446
01> -41530
00> -31461
01> -41518
00> -31442
01> -41503
00> -31400
01> -41501
00> -31379
01> -41496
00> -31384
01> -41483
00> -31393
01> -41480
00> -31371
01> -41481
00> -31342
01> -41487
00> -31326
01> -41492
00> -31336
01> -41490
00> -31353
01> -41489
00> -31357
01> -41494
00> -31336
01> -41512
00> -31327
01> -41531
00> -31353
01> -41543
00> -31381
01> -41544
00> -31387
01> -41558
00> -31366
01> -41571
00> -31354
01> -41567
00> -31370
01> -41559
00> -31404
01> -41561
00> -31426
01> -41579
00> -31419
01> -41597
00> -31407
01> -41604
00> -31420
01> -41599
00> -31438
01> -41592
00> -31442
01> -41599
00> -31429
01> -41611
00> -31414
01> -41607
00> -31437
01> -41604
00> -31460
01> -41605
00> -31461
01> -41619
00> -31442
01> -41621
00> -31424
01> -41612
00> -31432
01> -41601
00> -31447
01> -41598
00> -31457
01> -41606
00> -31437
01> -41620
00> -31422
01> -41624
00> -31436
01> -41615
00> -31457
01> -41628
00> -31461
01> -41640
00> -31446
01> -41650
00> -31431
01> -41647
00> -31442
01> -41641
00> -31469
01> -41639
00> -31472
01> -41635
00> -31447
01> -41636
00> -31433
01> -41624
00> -31444
01> -41612
00> -31459
01> -41609
00> -31459
01> -41619
00> -31435
01> -41625
00> -31437
01> -41618
00> -31459
01> -41609
00> -31474
01> -41602
00> -31471
01> -41602
00> -31447
01> -41604
00> -31432
01> -41607
00> -31444
01> -41609
00> -31467
01> -41609
00> -31471
01> -41616
00> -31460
01> -41613
00> -31454
01> -41611
00> -31469
01> -41624
00> -31491
01> -41634
00> -31488
01> -41640
00> -31459
01> -41647
00> -31447
01> -41647
00> -31464
01> -41649
00> -31491
01> -41649
00> -31489
01> -41654
00> -31469
01> -41646
00> -31459
01> -41643
00> -31476
01> -41639
00> -31492
01> -41630
00> -31488
01> -41631
00> -31461
01> -41627
00> -31444
01> -41629
00> -31462
01> -41627
00> -31486
01> -41626
00> -31484
01> -41625
00> -31457
01> -41625
00> -31444
01> -41624
00> -31457
01> -41623
00> -31481
01> -41625
00> -31482
01> -41634
00> -31470
01> -41653
00> -31461
01> -41659
00> -31477
01> -41658
00> -31497
01> -41659
00> -31494
01> -41667
00> -31471
01> -41664
00> -31459
01> -41658
00> -31473
01> -41656
00> -31504
01> -41671
00> -31509
01> -41678
00> -31493
01> -41678
00> -31476
01> -41662
00> -31490
01> -41657
00> -31514
01> -41654
00> -31513
01> -41654
00> -31493
01> -41657
00> -31465
01> -41641
00> -31476
01> -41627
00> -31492
01> -41626
00> -31494
01> -41625
00> -31473
01> -41619
00> -31462
01> -41605
00> -31473
01> -41589
00> -31494
01> -41581
00> -31492
01> -41584
00> -31467
01> -41591
00> -31444
01> -41584
00> -31439
01> -41568
00> -31452
01> -41560
00> -31464
01> -41567
00> -31456
01> -41577
00> -31437
01> -41562
00> -31434
01> -41536
00> -31454
01> -41526
00> -31449
01> -41522
00> -31427
01> -41514
00> -31413
01> -41504
00> -31412
01> -41484
00> -31427
01> -41463
00> -31419
01> -41451
00> -31392
01> -41454
00> -31376
01> -41454
00> -31384
01> -41446
00> -31397
01> -41447
00> -31398
01> -41459
00> -31381
01> -41472
00> -31358
01> -41480
00> -31363
01> -41482
00> -31391
01> -41493
00> -31401
01> -41507
00> -31384
01> -41516
00> -31384
01> -41530
00> -31404
01> -41532
00> -31431
01> -41542
00> -31446
01> -41563
00> -31434
01> -41573
00> -31420
01> -41573
00> -31423
01> -41557
00> -31447
01> -41553
00> -31465
01> -41567
00> -31455
01> -41584
00> -31443
01> -41592
00> -31457
01> -41591
00> -31482
01> -41592
00> -31485
01> -41604
00> -31462
01> -41614
00> -31451
01> -41605
00> -31472
01> -41597
00> -31497
01> -41602
00> -31499
01> -41607
00> -31477
01> -41616
00> -31456
01> -41623
00> -31464
01> -41616
00> -31491
01> -41614
00> -31503
01> -41624
00> -31488
01> -41639
00> -31473
01> -41632
00> -31486
01> -41631
00> -31507
01> -41634
00> -31511
01> -41638
00> -31488
01> -41637
00> -31472
01> -41639
00> -31476
01> -41625
00> -31497
01> -41614
00> -31497
01> -41618
00> -31472
01> -41617
00> -31458
01> -41603
00> -31468
01> -41597
00> -31492
01> -41591
00> -31500
01> -41598
00> -31486
01> -41605
00> -31465
01> -41598
00> -31467
01> -41577
00> -31482
01> -41564
00> -31486
01> -41571
00> -31474
01> -41582
00> -31458
01> -41585
00> -31466
01> -41586
00> -31486
01> -41590
00> -31495
01> -41598
00> -31483
01> -41613
00> -31471
01> -41629
00> -31480
01> -41624
00> -31499
01> -41612
00> -31510
01> -41614
00> -31499
01> -41614
00> -31479
01> -41613
00> -31484
01> -41611
00> -31503
01> -41602
00> -31504
01> -41602
00> -31477
01> -41606
00> -31466
01> -41605
00> -31478
01> -41595
00> -31498
01> -41591
00> -31504
01> -41586
00> -31483
01> -41582
00> -31469
01> -41592
00> -31473
01> -41586
00> -31492
01> -41584
00> -31499
01> -41590
00> -31481
01> -41603
00> -31464
01> -41606
00> -31479
01> -41592
00> -31501
01> -41592
00> -31510
01> -41611
00> -31494
01> -41614
00> -31475
01> -41599
00> -31477
01> -41592
00> -31491
01> -41592
00> -31499
01> -41601
00> -31484
01> -41605
00> -31462
01> -41596
00> -31464
01> -41584
00> -31482
01> -41576
00> -31489
01> -41584
00> -31478
01> -41588
00> -31461
01> -41594
00> -31459
01> -41583
00> -31469
01> -41566
00> -31471
01> -41566
00> -31458
01> -41572
00> -31446
01> -41579
00> -31452
01> -41569
00> -31477
01> -41576
00> -31484
01> -41586
00> -31460
01> -41588
00> -31444
01> -41582
00> -31455
01> -41576
00> -31481
01> -41571
00> -31486
01> -41578
00> -31474
01> -41598
00> -31461
01> -41607
00> -31464
01> -41597
00> -31487
01> -41595
00> -31479
01> -41591
00> -31454
01> -41583
00> -31447
01> -41582
00> -31461
01> -41569
00> -31487
01> -41557
00> -31501
01> -41567
00> -31484
01> -41576
00> -31466
01> -41576
00> -31479
01> -41575
00> -31491
01> -41571
00> -31487
01> -41562
00> -31468
01> -41570
00> -31442
01> -41569
00> -31443
01> -41561
00> -31471
01> -41556
00> -31484
01> -41559
00> -31462
01> -41558
00> -31443
01> -41559
00> -31447
01> -41561
00> -31469
01> -41565
00> -31482
01> -41568
00> -31468
01> -41570
00> -31446
01> -41568
00> -31447
01> -41559
00> -31461
01> -41552
00> -31465
01> -41551
00> -31447
01> -41553
00> -31434
01> -41557
00> -31441
01> -41555
00> -31454
01> -41538
00> -31464
01> -41530
00> -31461
01> -41531
00> -31435
01> -41510
00> -31427
01> -41488
00> -31442
01> -41476
00> -31438
01> -41458
00> -31416
01> -41444
00> -31394
01> -41430
00> -31391
01> -41419
00> -31411
01> -41414
00> -31416
01> -41413
00> -31399
01> -41408
00> -31384
01> -41409
00> -31404
01> -41421
00> -31429
01> -41426
00> -31437
01> -41441
00> -31429
01> -41459
00> -31417
01> -41462
00> -31422
01> -41463
00> -31440
01> -41467
00> -31447
01> -41482
00> -31434
01> -41502
00> -31427
01> -41511
00> -31449
01> -41508
00> -31483
01> -41520
00> -31488
01> -41540
00> -31473
01> -41547
00> -31455
01> -41548
00> -31457
01> -41546
00> -31491
01> -41551
00> -31513
01> -41559
00> -31508
01> -41569
00> -31487
01> -41569
00> -31488
01> -41566
00> -31503
01> -41564
00> -31512
01> -41568
00> -31507
01> -41584
00> -31492
01> -41578
00> -31495
01> -41571
00> -31512
01> -41564
00> -31521

00> -31507
01> -41579
00> -31486
01> -41581
00> -31488
01> -41580
00> -31512
01> -41575
00> -31529
01> -41577
00> -31511
01> -41579
00> -31493
01> -41577
00> -31499
01> -41571
00> -31523
01> -41569
00> -31534
01> -41576
00> -31519
01> -41584
00> -31492
01> -41583
00> -31493
01> -41576
00> -31522
01> -41579
00> -31539
01> -41586
00> -31532
01> -41596
00> -31515
01> -41602
00> -31512
01> -41592
00> -31521
01> -41576
00> -31527
01> -41565
00> -31519
01> -41580
00> -31504
01> -41595
00> -31501
01> -41591
00> -31517
01> -41587
00> -31527
01> -41589
00> -31514
01> -41592
00> -31496
01> -41596
00> -31494
01> -41578
00> -31518
01> -41566
00> -31536
01> -41574
00> -31524
01> -41579
00> -31499
01> -41579
00> -31497
01> -41571
00> -31516
01> -41565
00> -31532
01> -41571
00> -31522
01> -41577
00> -31505
01> -41584
00> -31503
01> -41582
00> -31521
01> -41576
00> -31538
01> -41586
00> -31534
01> -41601
00> -31512
01> -41609
00> -31506
01> -41607
00> -31524
01> -41596
00> -31532
01> -41591
00> -31519
01> -41589
00> -31496
01> -41583
00> -31492
01> -41576
00> -31511
01> -41576
00> -31518
01> -41574
00> -31502
01> -41574
00> -31492
01> -41575
00> -31502
01> -41568
00> -31521
01> -41559
00> -31524
01> -41552
00> -31511
01> -41556
00> -31490
01> -41554
00> -31490
01> -41553
00> -31511
01> -41549
00> -31524
01> -41555
00> -31516
01> -41561
00> -31499
01> -41552
00> -31502
01> -41554
00> -31526
01> -41560
00> -31542
01> -41572
00> -31532
01> -41579
00> -31509
01> -41574
00> -31504
01> -41562
00> -31522
01> -41556
00> -31528
01> -41562
00> -31519
01> -41576
00> -31501
01> -41577
00> -31502
01> -41571
00> -31526
01> -41566
00> -31531
01> -41565
00> -31522
01> -41564
00> -31503
01> -41569
00> -31501
01> -41555
00> -31522
01> -41549
00> -31533
01> -41550
00> -31520
01> -41551
00> -31499
01> -41547
00> -31493
01> -41541
00> -31515
01> -41542
00> -31532
01> -41542
00> -31518
01> -41545
00> -31499
01> -41550
00> -31508
01> -41554
00> -31531
01> -41548
00> -31546
01> -41552
00> -31536
01> -41564
00> -31511
01> -41568
00> -31511
01> -41565
00> -31524
01> -41552
00> -31528
01> -41547
00> -31524
01> -41561
00> -31505
01> -41566
00> -31496
01> -41553
00> -31520
01> -41547
00> -31529
01> -41542
00> -31512
01> -41540
00> -31492
01> -41544
00> -31496
01> -41541
00> -31516
01> -41539
00> -31529
01> -41537
00> -31518
01> -41537
00> -31494
01> -41532
00> -31495
01> -41519
00> -31521
01> -41528
00> -31534
01> -41541
00> -31509
01> -41539
00> -31491
01> -41538
00> -31489
01> -41532
00> -31505
01> -41517
00> -31518
01> -41509
00> -31507
01> -41511
00> -31483
01> -41509
00> -31479
01> -41502
00> -31502
01> -41504
00> -31515
01> -41503
00> -31501
01> -41500
00> -31472
01> -41486
00> -31472
01> -41475
00> -31486
01> -41470
00> -31492
01> -41460
00> -31471
01> -41457
00> -31449
01> -41453
00> -31446
01> -41447
00> -31469
01> -41440
00> -31476
01> -41431
00> -31460
01> -41441
00> -31440
01> -41458
00> -31439
01> -41461
00> -31450
01> -41464
00> -31465
01> -41468
00> -31472
01> -41485
00> -31469
01> -41514
00> -31478
01> -41526
00> -31497
01> -41530
00> -31509
01> -41544
00> -31513
01> -41565
00> -31501
01> -41571
00> -31506
01> -41567
00> -31539
01> -41574
00> -31559
01> -41589
00> -31547
01> -41609
00> -31532
01> -41618
00> -31532
01> -41612
00> -31551
01> -41602
00> -31568
01> -41615
00> -31552
01> -41619
00> -31534
01> -41620
00> -31534
01> -41620
00> -31544
01> -41609
00> -31556
01> -41612
00> -31551
01> -41624
00> -31532
01> -41624
00> -31528
01> -41618
00> -31545
01> -41617
00> -31554
01> -41617
00> -31552
01> -41616
00> -31537
01> -41615
00> -31536
01> -41616
00> -31557
01> -41610
00> -31574
01> -41618
00> -31562
01> -41630
00> -31542
01> -41632
00> -31533
01> -41629
00> -31554
01> -41627
00> -31580
01> -41638
00> -31575
01> -41651
00> -31549
01> -41649
00> -31544
01> -41646
00> -31566
01> -41652
00> -31582
01> -41652
00> -31571
01> -41657
00> -31548
01> -41652
00> -31546
01> -41642
00> -31569
01> -41640
00> -31586
01> -41652
00> -31576
01> -41664
00> -31551
01> -41658
00> -31547
01> -41651
00> -31569
01> -41647
00> -31582
01> -41646
00> -31567
01> -41655
00> -31544
01> -41661
00> -31538
01> -41656
00> -31564
01> -41650
00> -31584
01> -41651
00> -31574
01> -41662
00> -31562
01> -41668
00> -31558
01> -41663
00> -31574
01> -41657
00> -31586
01> -41667
00> -31579
01> -41682
00> -31550
01> -41683
00> -31541
01> -41674
00> -31557
01> -41662
00> -31582
01> -41660
00> -31586
01> -41672
00> -31564
01> -41676
00> -31546
01> -41671
00> -31566
01> -41662
00> -31583
01> -41669
00> -31575
01> -41678
00> -31557
01> -41676
00> -31557
01> -41665
00> -31574
01> -41647
00> -31593
01> -41652
00> -31592
01> -41670
00> -31568
01> -41671
00> -31559
01> -41661
00> -31572
01> -41651
00> -31585
01> -41652
00> -31580
01> -41667
00> -31556
01> -41674
00> -31551
01> -41671
00> -31576
01> -41667
00> -31595
01> -41667
00> -31586
01> -41677
00> -31565
01> -41677
00> -31557
01> -41672
00> -31575
01> -41660
00> -31591
01> -41659
00> -31590
01> -41667
00> -31571
01> -41672
00> -31563
01> -41673
00> -31579
01> -41667
00> -31590
01> -41664
00> -31574
01> -41660
00> -31544
01> -41649
00> -31531
01> -41636
00> -31551
01> -41622
00> -31563
01> -41620
00> -31544
01> -41624
00> -31527
01> -41623
00> -31526
01> -41613
00> -31541
01> -41597
00> -31547
01> -41577
00> -31533
01> -41554
00> -31509
01> -41547
00> -31494
01> -41531
00> -31511
01> -41511
00> -31532
01> -41515
00> -31522
01> -41515
00> -31494
01> -41507
00> -31482
01> -41500
00> -31495
01> -41496
00> -31508
01> -41502
00> -31497
01> -41512
00> -31477
01> -41519
00> -31472
01> -41526
00> -31494
01> -41536
00> -31517
01> -41542
00> -31517
01> -41547
00> -31494
01> -41547
00> -31494
01> -41549
00> -31514
01> -41554
00> -31530
01> -41556
00> -31531
01> -41564
00> -31522
01> -41571
00> -31516
01> -41572
00> -31526
01> -41562
00> -31540
01> -41564
00> -31538
01> -41572
00> -31519
01> -41574
00> -31511
01> -41576
00> -31532
01> -41580
00> -31554
01> -41584
00> -31544
01> -41589
00> -31529
01> -41586
00> -31524
01> -41586
00> -31534
01> -41582
00> -31547
01> -41577
00> -31547
01> -41581
00> -31534
01> -41589
00> -31528
01> -41597
00> -31547
01> -41605
00> -31566
01> -41606
00> -31559
01> -41606
00> -31530
01> -41601
00> -31524
01> -41596
00> -31542
01> -41591
00> -31555
01> -41591
00> -31548
01> -41597
00> -31528
01> -41596
00> -31520
01> -41589
00> -31531
01> -41580
00> -31550
01> -41578
00> -31548
01> -41587
00> -31524
01> -41591
00> -31519
01> -41587
00> -31541
01> -41584
00> -31556
01> -41591
00> -31559
01> -41602
00> -31536
01> -41607
00> -31524
01> -41601
00> -31541
01> -41586
00> -31549
01> -41586
00> -31544
01> -41600
00> -31529
01> -41603
00> -31524
01> -41612
00> -31540
01> -41614
00> -31557
01> -41611
00> -31550
01> -41609
00> -31539
01> -41614
00> -31537
01> -41621
00> -31552
01> -41620
00> -31570
01> -41619
00> -31565
01> -41622
00> -31541
01> -41621
00> -31527
01> -41606
00> -31541
01> -41594
00> -31559
01> -41584
00> -31567
01> -41604
00> -31551
01> -41621
00> -31538
01> -41617
00> -31546
01> -41603
00> -31561
01> -41593
00> -31565
01> -41601
00> -31544
01> -41606
00> -31529
01> -41609
00> -31544
01> -41605
00> -31562
01> -41602
00> -31567
01> -41616
00> -31552
01> -41635
00> -31549
01> -41647
00> -31566
01> -41642
00> -31587
01> -41643
00> -31577
01> -41647
00> -31553
01> -41648
00> -31544
01> -41644
00> -31549
01> -41629
00> -31564
01> -41621
00> -31567
01> -41634
00> -31549
01> -41639
00> -31533
01> -41623
00> -31551
01> -41609
00> -31577
01> -41607
00> -31572
01> -41622
00> -31552
01> -41632
00> -31534
01> -41621
00> -31547
01> -41611
00> -31574
01> -41620
00> -31574
01> -41641
00> -31557
01> -41657
00> -31552
01> -41656
00> -31567
01> -41649
00> -31583
01> -41649
00> -31579
01> -41652
00> -31554
01> -41653
00> -31544
01> -41657
00> -31554
01> -41656
00> -31572
01> -41649
00> -31585
01> -41654
00> -31574
01> -41660
00> -31566
01> -41657
00> -31574
01> -41646
00> -31587
01> -41638
00> -31582
01> -41637
00> -31558
01> -41636
00> -31545
01> -41627
00> -31552
01> -41616
00> -31566
01> -41601
00> -31553
01> -41595
00> -31540
01> -41607
00> -31534
01> -41608
00> -31551
01> -41593
00> -31571
01> -41588
00> -31570
01> -41599
00> -31542
01> -41604
00> -31528
01> -41600
00> -31546
01> -41595
00> -31564
01> -41603
00> -31549
01> -41603
00> -31526
01> -41594
00> -31517
01> -41578
00> -31529
01> -41563
00> -31535
01> -41545
00> -31523
01> -41531
00> -31509
01> -41524
00> -31496
01> -41511
00> -31508
01> -41496
00> -31521
01> -41479
00> -31517
01> -41471
00> -31491
01> -41467
00> -31472
01> -41457
00> -31482
01> -41449
00> -31496
01> -41455
00> -31480
01> -41452
00> -31446
01> -41457
00> -31442
01> -41465
00> -31464
01> -41467
00> -31482
01> -41466
00> -31482
01> -41475
00> -31458
01> -41486
00> -31450
01> -41494
00> -31469
01> -41491
00> -31485
01> -41495
00> -31490
01> -41510
00> -31477
01> -41524
00> -31479
01> -41529
00> -31504
01> -41526
00> -31524
01> -41531
00> -31532
01> -41549
00> -31517
01> -41564
00> -31510
01> -41562
00> -31520
01> -41545
00> -31535
01> -41538
00> -31536
01> -41541
00> -31517
01> -41546
00> -31508
01> -41546
00> -31517
01> -41535
00> -31531
01> -41532
00> -31532
01> -41548
00> -31511
01> -41556
00> -31507
01> -41565
00> -31524
01> -41562
00> -31542
01> -41561
00> -31542
01> -41561
00> -31521
01> -41563
00> -31513
01> -41564
00> -31534
01> -41570
00> -31551
01> -41579
00> -31549
01> -41585
00> -31535
01> -41588
00> -31519
01> -41577
00> -31522
01> -41554
00> -31542
01> -41544
00> -31552
01> -41557
00> -31541
01> -41571
00> -31526
01> -41567
00> -31530
01> -41549
00> -31536
01> -41530
00> -31532
01> -41522
00> -31522
01> -41529
00> -31518
01> -41534
00> -31529
01> -41536
00> -31546
01> -41534
00> -31539
01> -41532
00> -31519
01> -41542
00> -31517
01> -41536
00> -31537
01> -41534
00> -31563
01> -41550
00> -31558
01> -41554
00> -31537
01> -41552
00> -31529
01> -41557
00> -31535
01> -41550
00> -31547
01> -41540
00> -31542
01> -41541
00> -31530
01> -41551
00> -31524
01> -41547
00> -31541
01> -41542
00> -31552
01> -41539
00> -31544
01> -41534
00> -31520
01> -41531
00> -31510
01> -41522
00> -31532
01> -41519
00> -31550
01> -41522
00> -31539
01> -41524
00> -31511
01> -41527
00> -31499
01> -41519
00> -31515
01> -41511
00> -31537
01> -41511
00> -31538
01> -41513
00> -31522
01> -41529
00> -31511
01> -41539
00> -31527
01> -41543
00> -31553
01> -41552
00> -31559
01> -41559
00> -31533
01> -41559
00> -31514
01> -41546
00> -31527
01> -41544
00> -31548
01> -41549
00> -31546
01> -41554
00> -31537
01> -41561
00> -31521
01> -41561
00> -31536
01> -41550
00> -31564
01> -41541
00> -31567
01> -41543
00> -31549
01> -41558
00> -31534
01> -41561
00> -31547
01> -41547
00> -31563
01> -41534
00> -31554
01> -41526
00> -31534
01> -41527
00> -31521
01> -41518
00> -31541
01> -41524
00> -31569
01> -41534
00> -31570
01> -41547
00> -31551
01> -41560
00> -31534
01> -41557
00> -31543
01> -41543
00> -31571
01> -41549
00> -31574
01> -41558
00> -31554
01> -41573
00> -31541
01> -41568
00> -31551
01> -41555
00> -31575
01> -41545
00> -31582
01> -41551
00> -31561
01> -41556
00> -31536
01> -41553
00> -31550
01> -41548
00> -31577
01> -41553
00> -31581
01> -41559
00> -31559
01> -41561
00> -31543
01> -41551
00> -31560
01> -41542
00> -31577
01> -41526
00> -31580
01> -41536
00> -31559
01> -41542
00> -31542
01> -41542
00> -31546
01> -41532
00> -31566
01> -41531
00> -31575
01> -41536
00> -31558
01> -41533
00> -31537
01> -41529
00> -31543
01> -41519
00> -31575
01> -41526
00> -31586
01> -41536
00> -31566
01> -41540
00> -31547
01> -41534
00> -31547
01> -41521
00> -31566
01> -41518
00> -31565
01> -41517
00> -31541
01> -41516
00> -31526
01> -41510
00> -31536
01> -41497
00> -31556
01> -41487
00> -31558
01> -41491
00> -31543
01> -41502
00> -31527
01> -41506
00> -31528
01> -41499
00> -31546
01> -41494
00> -31549
01> -41502
00> -31526
01> -41508
00> -31521
01> -41503
00> -31547
01> -41502
00> -31569
01> -41497
00> -31569
01> -41494
00> -31540
01> -41500
00> -31521
01> -41505
00> -31525
01> -41495
00> -31544
01> -41487
00> -31549
01> -41491
00> -31523
01> -41488
00> -31501
01> -41476
00> -31517
01> -41468
00> -31550
01> -41472
00> -31553
01> -41467
00> -31521
01> -41456
00> -31505
01> -41441
00> -31508
01> -41429
00> -31527
01> -41423
00> -31534
01> -41428
00> -31506
01> -41427
00> -31477
01> -41406
00> -31482
01> -41391
00> -31501
01> -41386
00> -31499
01> -41389
00> -31474
01> -41396
00> -31456
01> -41401
00> -31473
01> -41406
00> -31502
01> -41411
00> -31518
01> -41427
00> -31506
01> -41441
00> -31489
01> -41445
00> -31502
01> -41447
00> -31525
01> -41444
00> -31536
01> -41461
00> -31514
01> -41474
00> -31500
01> -41477
00> -31516
01> -41479
00> -31539
01> -41481
00> -31558
01> -41489
00> -31544
01> -41504
00> -31530
01> -41507
00> -31544
01> -41514
00> -31564
01> -41525
00> -31574
01> -41536
00> -31565
01> -41543
00> -31557
01> -41544
00> -31574
01> -41541
00> -31594
01> -41538
00> -31599
01> -41548
00> -31580
01> -41557
00> -31564
01> -41554
00> -31563
01> -41546
00> -31581
01> -41543
00> -31592
01> -41539
00> -31577
01> -41540
00> -31576
01> -41552
00> -31590
01> -41561
00> -31609
01> -41569
00> -31611
01> -41573
00> -31589
01> -41579
00> -31572
01> -41571
00> -31580
01> -41557
00> -31599
01> -41549
00> -31606
01> -41564
00> -31593
01> -41575
00> -31576
01> -41572
00> -31576
01> -41564
00> -31594
01> -41557
00> -31604
01> -41554
00> -31591
01> -41553
00> -31574
01> -41552
00> -31579
01> -41547
00> -31606
01> -41550
00> -31612
01> -41561
00> -31600
01> -41571
00> -31584
01> -41571
00> -31582
01> -41561
00> -31604
01> -41565
00> -31614
01> -41572
00> -31597
01> -41581
00> -31582
01> -41591
00> -31583
01> -41581
00> -31609
01> -41579
00> -31620
01> -41586
00> -31604
01> -41591
00> -31580
01> -41579
00> -31584
01> -41567
00> -31605
01> -41564
00> -31604
01> -41556
00> -31592
01> -41561
00> -31580
01> -41556
00> -31584
01> -41547
00> -31611
01> -41536
00> -31616
01> -41531
00> -31598
01> -41528
00> -31576
01> -41526
00> -31584
01> -41527
00> -31600
01> -41527
00> -31605
01> -41531
00> -31584
01> -41537
00> -31566
01> -41531
00> -31573
01> -41531
00> -31597
01> -41539
00> -31608
01> -41546
00> -31592
01> -41554
00> -31573
01> -41555
00> -31582
01> -41551
00> -31604
01> -41534
00> -31611
01> -41544
00> -31601
01> -41558
00> -31586
01> -41559
00> -31591
01> -41551
00> -31601
01> -41536
00> -31613
01> -41537
00> -31592
01> -41549
00> -31578
01> -41549
00> -31584
01> -41541
00> -31601
01> -41532
00> -31605
01> -41534
00> -31584
01> -41534
00> -31562
01> -41525
00> -31564
01> -41518
00> -31592
01> -41516
00> -31602
01> -41518
00> -31584
01> -41528
00> -31562
01> -41527
00> -31564
01> -41519
00> -31589
01> -41520
00> -31592
01> -41516
00> -31576
01> -41518
00> -31565
01> -41527
00> -31566
01> -41534
00> -31587
01> -41537
00> -31595
01> -41526
00> -31580
01> -41537
00> -31571
01> -41538
00> -31576
01> -41531
00> -31599
01> -41522
00> -31607
01> -41519
00> -31582
01> -41526
00> -31562
01> -41520
00> -31576
01> -41514
00> -31605
01> -41507
00> -31616
01> -41512
00> -31593
01> -41523
00> -31567
01> -41517
00> -31576
01> -41513
00> -31597
01> -41519
00> -31611
01> -41529
00> -31602
01> -41531
00> -31592
01> -41529
00> -31592
01> -41517
00> -31609
01> -41506
00> -31616
01> -41513
00> -31599
01> -41524
00> -31577
01> -41529
00> -31567
01> -41519
00> -31592
01> -41506
00> -31615
01> -41510
00> -31602
01> -41519
00> -31581
01> -41516
00> -31581
01> -41506
00> -31599
01> -41497
00> -31605
01> -41495
00> -31593
01> -41494
00> -31574
01> -41489
00> -31574
01> -41472
00> -31589
01> -41461
00> -31595
01> -41461
00> -31574
01> -41462
00> -31552
01> -41454
00> -31548
01> -41440
00> -31559
01> -41428
00> -31559
01> -41416
00> -31541
01> -41414
00> -31525
01> -41410
00> -31523
01> -41397
00> -31544
01> -41386
00> -31555
01> -41385
00> -31532
01> -41379
00> -31503
01> -41362
00> -31499
01> -41348
00> -31522
01> -41337
00> -31539
01> -41324
00> -31530
01> -41329
00> -31509
01> -41329
00> -31505
01> -41317
00> -31519
01> -41314
00> -31529
01> -41312
00> -31514
01> -41319
00> -31496
01> -41325
00> -31496
01> -41319
00> -31516
01> -41324
00> -31527
01> -41331
00> -31514
01> -41333
00> -31504
01> -41337
00> -31506
01> -41339
00> -31525
01> -41337
00> -31544
01> -41342
00> -31540
01> -41358
00> -31526
01> -41376
00> -31532
01> -41384
00> -31552
01> -41386
00> -31562
01> -41381
00> -31561
01> -41396
00> -31550
01> -41411
00> -31548
01> -41398
00> -31574
01> -41388
00> -31590
01> -41389
00> -31573
01> -41388
00> -31561
01> -41387
00> -31571
01> -41397
00> -31596
01> -41401
00> -31608
01> -41409
00> -31599
01> -41429
00> -31581
01> -41437
00> -31583
01> -41433
00> -31602
01> -41431
00> -31613
01> -41442
00> -31596
01> -41447
00> -31579
01> -41453
00> -31581
01> -41456
00> -31602
01> -41456
00> -31612
01> -41457
00> -31598
01> -41466
00> -31582
01> -41468
00> -31581
01> -41467
00> -31601
01> -41461
00> -31612
01> -41462
00> -31598
01> -41457
00> -31579
01> -41451
00> -31576
01> -41439
00> -31594
01> -41437
00> -31611
01> -41444
00> -31596
01> -41447
00> -31574
01> -41452
00> -31571
01> -41449
00> -31588
01> -41442
00> -31609
01> -41447
00> -31596
01> -41454
00> -31581
01> -41452
00> -31582
01> -41456
00> -31606
01> -41459
00> -31616
01> -41459
00> -31604
01> -41472
00> -31574
01> -41477
00> -31571
01> -41470
00> -31602
01> -41472
00> -31619
01> -41474
00> -31611
01> -41479
00> -31595
01> -41483
00> -31589
01> -41480
00> -31601
01> -41469
00> -31611
01> -41466
00> -31606
01> -41466
00> -31584
01> -41466
00> -31577
01> -41462
00> -31592
01> -41449
00> -31604
01> -41447
00> -31592
01> -41456
00> -31572
01> -41461
00> -31574
01> -41452
00> -31599
01> -41451
00> -31617
01> -41471
00> -31605
01> -41477
00> -31583
01> -41490
00> -31579
01> -41483
00> -31592
01> -41476
00> -31601
01> -41476
00> -31594
01> -41482
00> -31580
01> -41477
00> -31580
01> -41471
00> -31606
01> -41474
00> -31614
01> -41474
00> -31599
01> -41472
00> -31576
01> -41478
00> -31573
01> -41467
00> -31597
01> -41459
00> -31609
01> -41462
00> -31599
01> -41472
00> -31582
01> -41474
00> -31581
01> -41469
00> -31597
01> -41459
00> -31608
01> -41454
00> -31599
01> -41456
00> -31580
01> -41461
00> -31584
01> -41464
00> -31607
01> -41456
00> -31628
01> -41454
00> -31619
01> -41458
00> -31594
01> -41460
00> -31588
01> -41459
00> -31601
01> -41457
00> -31616
01> -41459
00> -31611
01> -41462
00> -31590
01> -41460
00> -31581
01> -41441
00> -31602
01> -41420
00> -31620
01> -41425
00> -31602
01> -41429
00> -31571
01> -41424
00> -31572
01> -41420
00> -31594
01> -41409
00> -31606
01> -41411
00> -31596
01> -41416
00> -31572
01> -41416
00> -31559
01> -41405
00> -31577
01> -41391
00> -31595
01> -41394
00> -31582
01> -41402
00> -31564
01> -41407
00> -31567
01> -41407
00> -31586
01> -41402
00> -31603
01> -41407
00> -31589
01> -41411
00> -31569
01> -41419
00> -31571
01> -41427
00> -31590
01> -41420
00> -31601
01> -41417
00> -31579
01> -41412
00> -31561
01> -41412
00> -31561
01> -41408
00> -31578
01> -41407
00> -31589
01> -41409
00> -31576
01> -41411
00> -31551
01> -41408
00> -31544
01> -41398
00> -31556
01> -41378
00> -31566
01> -41371
00> -31548
01> -41373
00> -31519
01> -41369
00> -31516
01> -41361
00> -31531
01> -41355
00> -31548
01> -41350
00> -31544
01> -41352
00> -31532
01> -41364
00> -31529
01> -41371
00> -31542
01> -41367
00> -31554
01> -41372
00> -31550
01> -41397
00> -31533
01> -41416
00> -31528
01> -41408
00> -31549
01> -41399
00> -31566
01> -41402
00> -31560
01> -41411
00> -31541
01> -41420
00> -31547
01> -41433
00> -31567
01> -41441
00> -31582
01> -41444
00> -31576
01> -41456
00> -31552
01> -41477
00> -31556
01> -41483
00> -31580
01> -41484
00> -31595
01> -41491
00> -31583
01> -41497
00> -31564
01> -41499
00> -31568
01> -41496
00> -31586
01> -41489
00> -31599
01> -41490
00> -31591
01> -41502
00> -31571
01> -41499
00> -31569
01> -41486
00> -31584
01> -41480
00> -31599
01> -41481
00> -31589
01> -41487
00> -31560
01> -41489
00> -31552
01> -41496
00> -31574
01> -41501
00> -31606
01> -41506
00> -31607
01> -41512
00> -31580
01> -41509
00> -31571
01> -41504
00> -31592
01> -41500
00> -31611
01> -41500
00> -31600
01> -41502
00> -31571
01> -41497
00> -31558
01> -41487
00> -31574
01> -41489
00> -31592
01> -41494
00> -31592
01> -41506
00> -31577
01> -41512
00> -31565
01> -41505
00> -31583
01> -41492
00> -31606
01> -41489
00> -31607
01> -41491
00> -31586
01> -41489
00> -31582
01> -41492
00> -31593
01> -41491
00> -31593
01> -41481
00> -31577
01> -41477
00> -31561
01> -41477
00> -31562
01> -41474
00> -31576
01> -41464
00> -31593
01> -41464
00> -31596
01> -41473
00> -31579
01> -41487
00> -31567
01> -41484
00> -31588
01> -41479
00> -31609
01> -41484
00> -31595
01> -41485
00> -31575
01> -41491
00> -31571
01> -41487
00> -31589
01> -41475
00> -31609
01> -41476
00> -31608
01> -41481
00> -31579
01> -41477
00> -31564
01> -41471
00> -31581
01> -41467
00> -31599
01> -41472
00> -31596
01> -41481
00> -31579
01> -41484
00> -31566
01> -41477
00> -31581
01> -41472
00> -31604
01> -41471
00> -31598
01> -41477
00> -31571
01> -41481
00> -31563
01> -41476
00> -31587
01> -41470
00> -31606
01> -41483
00> -31599
01> -41495
00> -31572
01> -41499
00> -31564
01> -41496
00> -31584
01> -41490
00> -31612
01> -41488
00> -31611
01> -41489
00> -31580
01> -41492
00> -31571
01> -41495
00> -31586
01> -41486
00> -31602
01> -41486
00> -31602
01> -41499
00> -31583
01> -41509
00> -31579
01> -41507
00> -31593
01> -41500
00> -31606
01> -41488
00> -31607
01> -41491
00> -31586
01> -41496
00> -31574
01> -41486
00> -31596
01> -41478
00> -31612
01> -41481
00> -31602
01> -41485
00> -31587
01> -41491
00> -31584
01> -41496
00> -31594
01> -41496
00> -31610
01> -41493
00> -31602
01> -41488
00> -31580
01> -41486
00> -31566
01> -41471
00> -31577
01> -41469
00> -31602
01> -41472
00> -31599
01> -41482
00> -31584
01> -41499
00> -31576
01> -41499
00> -31586
01> -41485
00> -31604
01> -41483
00> -31599
01> -41491
00> -31566
01> -41494
00> -31548
01> -41486
00> -31567
01> -41484
00> -31591
01> -41480
00> -31596
01> -41480
00> -31576
01> -41476
00> -31559
01> -41467
00> -31563
01> -41449
00> -31587
01> -41445
00> -31593
01> -41459
00> -31567
01> -41461
00> -31549
01> -41445
00> -31552
01> -41419
00> -31563
01> -41408
00> -31554
01> -41397
00> -31526
01> -41384
00> -31512
01> -41373
00> -31519
01> -41357
00> -31538
01> -41356
00> -31529
01> -41355
00> -31504
01> -41347
00> -31490
01> -41349
00> -31497
01> -41341
00> -31509
01> -41326
00> -31502
01> -41322
00> -31476
01> -41317
00> -31465
01> -41321
00> -31484
01> -41321
00> -31501
01> -41320
00> -31497
01> -41327
00> -31478
01> -41329
00> -31466
01> -41321
00> -31477
01> -41301
00> -31499
01> -41296
00> -31493
01> -41306
00> -31474
01> -41319
00> -31469
01> -41321
00> -31485
01> -41319
00> -31509
01> -41329
00> -31511
01> -41337
00> -31495
01> -41341
00> -31489
01> -41339
00> -31504
01> -41336
00> -31526
01> -41336
00> -31517
01> -41347
00> -31494
01> -41354
00> -31487
01> -41349
00> -31511
01> -41349
00> -31536
01> -41352
00> -31536
01> -41357
00> -31516
01> -41367
00> -31511
01> -41376
00> -31529
01> -41373
00> -31554
01> -41376
00> -31553
01> -41382
00> -31530
01> -41383
00> -31534
01> -41386
00> -31565
01> -41399
00> -31591
01> -41412
00> -31591
01> -41421
00> -31574
01> -41436
00> -31569
01> -41440
00> -31579
01> -41430
00> -31595
01> -41426
00> -31602
01> -41439
00> -31586
01> -41454
00> -31571
01> -41455
00> -31584
01> -41454
00> -31606
01> -41456
00> -31609
01> -41461
00> -31592
01> -41472
00> -31574
01> -41471
00> -31586
01> -41477
00> -31609
01> -41483
00> -31610
01> -41490
00> -31595
01> -41493
00> -31584
01> -41482
00> -31599
01> -41480
00> -31612
01> -41479
00> -31614
01> -41486
00> -31599
01> -41500
00> -31586
01> -41503
00> -31596
01> -41501
00> -31613
01> -41496
00> -31613
01> -41497
00> -31593
01> -41497
00> -31579
01> -41482
00> -31602
01> -41482
00> -31634
01> -41495
00> -31631
01> -41509
00> -31609
01> -41512
00> -31591
01> -41506
00> -31597
01> -41497
00> -31622
01> -41500
00> -31624
01> -41514
00> -31608
01> -41518
00> -31601
01> -41523
00> -31611
01> -41521
00> -31631
01> -41518
00> -31626
01> -41525
00> -31607
01> -41528
00> -31586
01> -41524
00> -31594
01> -41516
00> -31614
01> -41511
00> -31609
01> -41516
00> -31589
01> -41529
00> -31591
01> -41532
00> -31612
01> -41532
00> -31639
01> -41536
00> -31637
01> -41542
00> -31621
01> -41548
00> -31610
01> -41545
00> -31620
01> -41531
00> -31642
01> -41533
00> -31638
01> -41539
00> -31616
01> -41535
00> -31604
01> -41525
00> -31619
01> -41521
00> -31635
01> -41518
00> -31634
01> -41519
00> -31610
01> -41522
00> -31595
01> -41522
00> -31607
01> -41525
00> -31629
01> -41529
00> -31635
01> -41541
00> -31621
01> -41554
00> -31597
01> -41542
00> -31608
01> -41531
00> -31637
01> -41530
00> -31647
01> -41534
00> -31625
01> -41542
00> -31611
01> -41550
00> -31619
01> -41559
00> -31642
01> -41558
00> -31644
01> -41550
00> -31621
01> -41542
00> -31614
01> -41542
00> -31634
01> -41550
00> -31662
01> -41559
00> -31661
01> -41560
00> -31634
01> -41556
00> -31618
01> -41551
00> -31625
01> -41542
00> -31639
01> -41529
00> -31642
01> -41541
00> -31622
01> -41543
00> -31607
01> -41535
00> -31625
01> -41535
00> -31649
01> -41538
00> -31651
01> -41551
00> -31632
01> -41564
00> -31612
01> -41562
00> -31624
01> -41554
00> -31648
01> -41542
00> -31656
01> -41542
00> -31635
01> -41552
00> -31618
01> -41557
00> -31629
01> -41552
00> -31664
01> -41559
00> -31672
01> -41560
00> -31654
01> -41552
00> -31645
01> -41550
00> -31647
01> -41540
00> -31661
01> -41542
00> -31659
01> -41543
00> -31631
01> -41546
00> -31616
01> -41547
00> -31624
01> -41541
00> -31639
01> -41529
00> -31639
01> -41524
00> -31625
01> -41526
00> -31609
01> -41519
00> -31613
01> -41506
00> -31637
01> -41499
00> -31636
01> -41497
00> -31606
01> -41501
00> -31581
01> -41489
00> -31587
01> -41471
00> -31604
01> -41463
00> -31607
01> -41465
00> -31592
01> -41464
00> -31579
01> -41462
00> -31591
01> -41454
00> -31608
01> -41450
00> -31604
01> -41450
00> -31579
01> -41454
00> -31554
01> -41444
00> -31552
01> -41412
00> -31573
01> -41402
00> -31574
01> -41403
00> -31546
01> -41398
00> -31523
01> -41391
00> -31525
01> -41369
00> -31527
01> -41351
00> -31521
01> -41352
00> -31502
01> -41359
00> -31477
01> -41366
00> -31472
01> -41361
00> -31496
01> -41363
00> -31495
01> -41374
00> -31476
01> -41387
00> -31462
01> -41391
00> -31477
01> -41393
00> -31506
01> -41402
00> -31517
01> -41414
00> -31499
01> -41417
00> -31484
01> -41416
00> -31502
01> -41415
00> -31527
01> -41419
00> -31536
01> -41431
00> -31516
01> -41434
00> -31494
01> -41433
00> -31505
01> -41437
00> -31537
01> -41451
00> -31555
01> -41464
00> -31541
01> -41471
00> -31522
01> -41466
00> -31534
01> -41466
00> -31556
01> -41462
00> -31560
01> -41471
00> -31554
01> -41479
00> -31536
01> -41469
00> -31540
01> -41459
00> -31562
01> -41464
00> -31574
01> -41468
00> -31564
01> -41479
00> -31543
01> -41483
00> -31551
01> -41481
00> -31581
01> -41484
00> -31589
01> -41495
00> -31565
01> -41498
00> -31552
01> -41498
00> -31561
01> -41496
00> -31576
01> -41490
00> -31582
01> -41497
00> -31571
01> -41503
00> -31554
01> -41496
00> -31551
01> -41481
00> -31561
01> -41467
00> -31566
01> -41469
00> -31551
01> -41474
00> -31530
01> -41472
00> -31534
01> -41463
00> -31557
01> -41464
00> -31571
01> -41476
00> -31557
01> -41484
00> -31541
01> -41482
00> -31547
01> -41481
00> -31571
01> -41482
00> -31578
01> -41489
00> -31564
01> -41494
00> -31549
01> -41497
00> -31554
01> -41497
00> -31576
01> -41492
00> -31589
01> -41498
00> -31579
01> -41502
00> -31561
01> -41502
00> -31565
01> -41494
00> -31579
01> -41491
00> -31582
01> -41504
00> -31573
01> -41506
00> -31561
01> -41502
00> -31564
01> -41494
00> -31585
01> -41480
00> -31604
01> -41487
00> -31588
01> -41492
00> -31564
01> -41487
00> -31565
01> -41469
00> -31585
01> -41463
00> -31595
01> -41475
00> -31577
01> -41490
00> -31564
01> -41495
00> -31571
01> -41500
00> -31589
01> -41501
00> -31595
01> -41494
00> -31581
01> -41506
00> -31567
01> -41507
00> -31574
01> -41497
00> -31598
01> -41491
00> -31600
01> -41501
00> -31580
01> -41517
00> -31558
01> -41516
00> -31557
01> -41501
00> -31578
01> -41486
00> -31591
01> -41492
00> -31587
01> -41512
00> -31576
01> -41514
00> -31576
01> -41504
00> -31586
01> -41494
00> -31599
01> -41494
00> -31589
01> -41488
00> -31566
01> -41479
00> -31572
01> -41473
00> -31594
01> -41469
00> -31602
01> -41481
00> -31589
01> -41497
00> -31573
01> -41504
00> -31579
01> -41507
00> -31596
01> -41510
00> -31601
01> -41517
00> -31586
01> -41522
00> -31574
01> -41528
00> -31583
01> -41527
00> -31601
01> -41516
00> -31610
01> -41510
00> -31586
01> -41512
00> -31573
01> -41515
00> -31582
01> -41502
00> -31600
01> -41500
00> -31603
01> -41512
00> -31585
01> -41514
00> -31569
01> -41499
00> -31574
01> -41484
00> -31590
01> -41475
00> -31597
01> -41482
00> -31584
01> -41488
00> -31564
01> -41478
00> -31568
01> -41467
00> -31593
01> -41461
00> -31604
01> -41466
00> -31587
01> -41477
00> -31567
01> -41480
00> -31564
01> -41469
00> -31586
01> -41458
00> -31597
01> -41466
00> -31582
01> -41474
00> -31556
01> -41469
00> -31564
01> -41463
00> -31593
01> -41461
00> -31604
01> -41462
00> -31578
01> -41471
00> -31559
01> -41468
00> -31560
01> -41464
00> -31579
01> -41459
00> -31590
01> -41467
00> -31574
01> -41464
00> -31555
01> -41453
00> -31549
01> -41434
00> -31569
01> -41432
00> -31587
01> -41439
00> -31579
01> -41446
00> -31562
01> -41448
00> -31556
01> -41432
00> -31568
01> -41417
00> -31571
01> -41417
00> -31549
01> -41416
00> -31524
01> -41406
00> -31522
01> -41393
00> -31539
01> -41383
00> -31549
01> -41382
00> -31529
01> -41389
00> -31504
01> -41392
00> -31512
01> -41390
00> -31534
01> -41381
00> -31542
01> -41377
00> -31529
01> -41381
00> -31502
01> -41371
00> -31496
01> -41362
00> -31506
01> -41357
00> -31516
01> -41349
00> -31501
01> -41340
00> -31478
01> -41331
00> -31479
01> -41318
00> -31503
01> -41312
00> -31513
01> -41321
00> -31496
01> -41333
00> -31467
01> -41336
00> -31460
01> -41328
00> -31484
01> -41329
00> -31500
01> -41340
00> -31485
01> -41350
00> -31474
01> -41354
00> -31486
01> -41356
00> -31515
01> -41362
00> -31524
01> -41360
00> -31510
01> -41362
00> -31497
01> -41366
00> -31511
01> -41357
00> -31536
01> -41354
00> -31549
01> -41368
00> -31543
01> -41381
00> -31523
01> -41382
00> -31526
01> -41376
00> -31545
01> -41371
00> -31555
01> -41367
00> -31544
01> -41382
00> -31527
01> -41398
00> -31528
01> -41391
00> -31554
01> -41377
00> -31571
01> -41379
00> -31554
01> -41389
00> -31529
01> -41389
00> -31527
01> -41381
00> -31548
01> -41372
00> -31561
01> -41382
00> -31554
01> -41400
00> -31542
01> -41409
00> -31540
01> -41401
00> -31561
01> -41396
00> -31574
01> -41402
00> -31559
01> -41412
00> -31534
01> -41419
00> -31533
01> -41413
00> -31563
01> -41414
00> -31577
01> -41412
00> -31562
01> -41423
00> -31546
01> -41429
00> -31548
01> -41424
00> -31564
01> -41406
00> -31581
01> -41408
00> -31576
01> -41421
00> -31553
01> -41416
00> -31552
01> -41404
00> -31570
01> -41397
00> -31586
01> -41391
00> -31572
01> -41393
00> -31552
01> -41395
00> -31546
01> -41388
00> -31553
01> -41384
00> -31570
01> -41401
00> -31565
01> -41415
00> -31544
01> -41424
00> -31538
01> -41429
00> -31561
01> -41432
00> -31577
01> -41443
00> -31567
01> -41447
00> -31549
01> -41441
00> -31544
01> -41434
00> -31561
01> -41431
00> -31571
01> -41436
00> -31551
01> -41442
00> -31534
01> -41454
00> -31542
01> -41457
00> -31560
01> -41449
00> -31565
01> -41440
00> -31554
01> -41443
00> -31531
01> -41447
00> -31524
01> -41441
00> -31539
01> -41430
00> -31557
01> -41418
00> -31554
01> -41429
00> -31539
01> -41441
00> -31532
01> -41436
00> -31547
01> -41421
00> -31562
01> -41422
00> -31551
01> -41434
00> -31532
01> -41452
00> -31531
01> -41455
00> -31551
01> -41443
00> -31564
01> -41449
00> -31556
01> -41461
00> -31537
01> -41468
00> -31532
01> -41463
00> -31554
01> -41459
00> -31561
01> -41454
00> -31554
01> -41462
00> -31529
01> -41462
00> -31522
01> -41455
00> -31535
