# SEGGER J-Link RTT Viewer V6.62 Terminal Log File
# Compiled: 16:34:01 on Jan 24 2020
# Logging started @ 20 Jun 2024 16:12:42

00> -45461
01> -71280
00> -45482
01> -71326
00> -45514
01> -71370
00> -45538
01> -71406
00> -45546
01> -71442
00> -45560
01> -71473
00> -45571
01> -71486
00> -45596
01> -71504
00> -45628
01> -71544
00> -45647
01> -71581
00> -45643
01> -71604
00> -45658
01> -71651
00> -45694
01> -71689
00> -45737
01> -71736
00> -45765
01> -71774
00> -45774
01> -71819
00> -45783
01> -71845
00> -45817
01> -71875
00> -45837
01> -71900
00> -45844
01> -71928
00> -45849
01> -71975
00> -45884
01> -72046
00> -45934
01> -72070
00> -45967
01> -72077
00> -45974
01> -72102
00> -45977
01> -72131
00> -46004
01> -72161
00> -46026
01> -72189
00> -46042
01> -72219
00> -46033
01> -72237
00> -46043
01> -72271
00> -46060
01> -72312
00> -46064
01> -72309
00> -46047
01> -72274
00> -46018
01> -72270
00> -46001
01> -72282
00> -45999
01> -72267
00> -45994
01> -72262
00> -45994
01> -72287
00> -45963
01> -72322
00> -45915
01> -72342
00> -45900
01> -72326
00> -45938
01> -72341
00> -45974
01> -72417
00> -45985
01> -72459
00> -45944
01> -72427
00> -45947
01> -72449
00> -45996
01> -72469
00> -46033
01> -72509
00> -46043
01> -72567
00> -46041
01> -72623
00> -46062
01> -72666
00> -46109
01> -72712
00> -46144
01> -72743
00> -46153
01> -72806
00> -46179
01> -72912
00> -46223
01> -72962
00> -46268
01> -72953
00> -46321
01> -72987
00> -46354
01> -73043
00> -46360
01> -73081
00> -46403
01> -73134
00> -46474
01> -73212
00> -46534
01> -73284
00> -46564
01> -73339
00> -46584
01> -73393
00> -46623
01> -73438
00> -46695
01> -73510
00> -46751
01> -73566
00> -46774
01> -73560
00> -46800
01> -73589
00> -46829
01> -73641
00> -46902
01> -73714
00> -46959
01> -73762
00> -46978
01> -73799
00> -47016
01> -73858
01> 
00> -47055
01> -73903
00> -47119
01> -73969
00> -47177
01> -74029
00> -47208
01> -74101
00> -47229
01> -74161
00> -47250
01> -74177
00> -47304
01> -74204
00> -47372
01> -74272
00> -47404
01> -74322
00> -47410
01> -74347
00> -47451
01> -74398
00> -47539
01> -74453
00> -47607
01> -74537
00> -47630
01> -74576
00> -47659
01> -74611
00> -47705
01> -74659
00> -47769
01> -74730
00> -47831
01> -74797
00> -47857
01> -74822
00> -47871
01> -74850
00> -47907
01> -74901
00> -47973
01> -74979
00> -48049
01> -75081
00> -48099
01> -75156
00> -48122
01> -75190
00> -48151
01> -75185
00> -48211
01> -75230
00> -48269
01> -75307
00> -48289
01> -75401
00> -48295
01> -75477
00> -48320
01> -75480
00> -48384
01> -75510
00> -48450
01> -75592
00> -48476
01> -75624
00> -48477
01> -75636
00> -48509
01> -75692
00> -48568
01> -75744
00> -48610
01> -75777
00> -48629
01> -75822
00> -48645
01> -75868
00> -48673
01> -75906
00> -48698
01> -75907
00> -48728
01> -75925
00> -48744
01> -75952
00> -48762
01> -75987
00> -48794
01> -76035
00> -48831
01> -76085
00> -48867
01> -76120
00> -48883
01> -76157
00> -48874
01> -76165
00> -48887
01> -76184
00> -48921
01> -76223
00> -48956
01> -76260
00> -48962
01> -76273
00> -48953
01> -76280
00> -48959
01> -76302
00> -48994
01> -76322
00> -49031
01> -76357
00> -49019
01> -76387
00> -48999
01> -76428
00> -48997
01> -76436
00> -49026
01> -76391
00> -49047
01> -76390
00> -49050
01> -76401
00> -49027
01> -76388
00> -49022
01> -76409
00> -49064
01> -76454
00> -49091
01> -76483
00> -49077
01> -76484
00> -49055
01> -76494
00> -49046
01> -76508
00> -49051
01> -76509
00> -49067
01> -76539
00> -49037
01> -76551
00> -49007
01> -76526
00> -48997
01> -76454
00> -48989
01> -76445
00> -48994
01> -76480
00> -48988
01> -76469
00> -48970
01> -76455
00> -48961
01> -76471
00> -48981
01> -76494
00> -48984
01> -76505
00> -48967
01> -76504
00> -48945
01> -76494
00> -48931
01> -76510
00> -48930
01> -76530
00> -48942
01> -76511
00> -48930
01> -76501
00> -48897
01> -76509
00> -48884
01> -76531
00> -48904
01> -76525
00> -48945
01> -76534
00> -48940
01> -76581
00> -48912
01> -76598
00> -48899
01> -76589
00> -48916
01> -76606
00> -48930
01> -76644
00> -48930
01> -76644
00> -48899
01> -76612
00> -48879
01> -76621
00> -48899
01> -76641
00> -48922
01> -76677
00> -48921
01> -76665
00> -48899
01> -76647
00> -48877
01> -76634
00> -48884
01> -76650
00> -48894
01> -76691
00> -48886
01> -76718
00> -48864
01> -76692
00> -48866
01> -76684
00> -48874
01> -76701
00> -48856
01> -76673
00> -48844
01> -76654
00> -48814
01> -76641
00> -48793
01> -76637
00> -48821
01> -76654
00> -48832
01> -76665
00> -48808
01> -76652
00> -48764
01> -76657
00> -48747
01> -76693
00> -48755
01> -76716
00> -48767
01> -76707
00> -48750
01> -76671
00> -48700
01> -76639
00> -48687
01> -76636
00> -48717
01> -76662
00> -48726
01> -76662
00> -48689
00> -31624
01> -54811
00> -31609
01> -54813
00> -31614
01> -54810
00> -31636
01> -54806
00> -31644
01> -54813
00> -31632
01> -54824
00> -31606
01> -54811
00> -31600
01> -54789
00> -31617
01> -54778
00> -31638
01> -54791
00> -31633
01> -54806
00> -31618
01> -54807
00> -31620
01> -54791
00> -31632
01> -54777
00> -31637
01> -54782
00> -31621
01> -54785
00> -31596
01> -54782
00> -31599
01> -54767
00> -31619
01> -54754
00> -31638
01> -54752
00> -31627
01> -54761
00> -31607
01> -54761
00> -31611
01> -54750
00> -31631
01> -54742
00> -31643
01> -54744
00> -31635
01> -54754
00> -31617
01> -54754
00> -31609
01> -54736
00> -31624
01> -54724
00> -31639
01> -54724
00> -31631
01> -54722
00> -31605
01> -54716
00> -31602
01> -54698
00> -31624
01> -54689
00> -31647
01> -54699
00> -31633
01> -54702
00> -31609
01> -54698
00> -31607
01> -54684
00> -31621
01> -54677
00> -31637
01> -54688
00> -31633
01> -54701
00> -31614
01> -54695
00> -31607
01> -54669
00> -31624
01> -54647
00> -31650
01> -54668
00> -31643
01> -54686
00> -31614
01> -54675
00> -31599
01> -54654
00> -31616
01> -54641
00> -31634
01> -54639
00> -31624
01> -54644
00> -31596
01> -54638
00> -31595
01> -54628
00> -31617
01> -54627
00> -31637
01> -54641
00> -31626
01> -54655
00> -31606
01> -54642
00> -31612
01> -54621
00> -31638
01> -54614
00> -31649
01> -54615
00> -31628
01> -54604
00> -31603
01> -54597
00> -31599
01> -54584
00> -31612
01> -54569
00> -31629
01> -54573
00> -31619
01> -54584
00> -31597
01> -54574
00> -31602
01> -54572
00> -31617
01> -54563
00> -31629
01> -54557
00> -31619
01> -54560
00> -31596
01> -54559
00> -31596
01> -54550
00> -31622
01> -54542
00> -31631
01> -54544
00> -31616
01> -54549
00> -31597
01> -54546
00> -31591
01> -54525
00> -31598
01> -54505
00> -31622
01> -54519
00> -31629
01> -54545
00> -31606
01> -54538
00> -31596
01> -54512
00> -31615
01> -54501
00> -31629
01> -54507
00> -31616
01> -54510
00> -31599
01> -54512
00> -31594
01> -54494
00> -31602
01> -54479
00> -31625
01> -54497
00> -31620
01> -54511
00> -31591
01> -54502
00> -31586
01> -54487
00> -31616
01> -54477
00> -31633
01> -54480
00> -31618
01> -54486
00> -31582
01> -54476
00> -31573
01> -54455
00> -31593
01> -54442
00> -31614
01> -54457
00> -31604
01> -54467
00> -31586
01> -54459
00> -31585
01> -54441
00> -31607
01> -54427
00> -31619
01> -54429
00> -31602
01> -54434
00> -31576
01> -54427
00> -31577
01> -54421
00> -31598
01> -54419
00> -31607
01> -54422
00> -31590
01> -54419
00> -31567
01> -54414
00> -31561
01> -54395
00> -31583
01> -54386
00> -31613
01> -54404
00> -31615
01> -54418
00> -31590
01> -54413
00> -31584
01> -54392
00> -31605
01> -54378
00> -31626
01> -54382
00> -31621
01> -54394
00> -31592
01> -54390
00> -31582
01> -54376
00> -31602
01> -54359
00> -31624
01> -54352
00> -31613
01> -54357
00> -31590
01> -54352
00> -31587
01> -54338
00> -31605
01> -54327
00> -31617
01> -54326
00> -31604
01> -54332
00> -31584
01> -54324
00> -31583
01> -54306
00> -31607
01> -54298
00> -31622
01> -54301
00> -31607
01> -54309
00> -31582
01> -54313
00> -31575
01> -54297
00> -31592
01> -54285
00> -31617
01> -54289
00> -31604
01> -54298
00> -31576
01> -54292
00> -31566
01> -54276
00> -31581
01> -54262
00> -31594
01> -54267
00> -31595
01> -54274
00> -31574
01> -54272
00> -31566
01> -54259
00> -31584
01> -54243
00> -31601
01> -54240
00> -31598
01> -54254
00> -31573
01> -54249
00> -31560
01> -54236
00> -31579
01> -54229
00> -31601
01> -54226
00> -31591
01> -54228
00> -31556
01> -54221
00> -31542
01> -54196
00> -31564
01> -54182
00> -31581
01> -54181
00> -31569
01> -54184
00> -31547
01> -54184
00> -31539
01> -54172
00> -31562
01> -54159
00> -31589
01> -54152
00> -31585
01> -54164
00> -31560
01> -54163
00> -31546
01> -54147
00> -31554
01> -54127
00> -31560
01> -54129
00> -31549
01> -54132
00> -31536
01> -54143
00> -31532
01> -54137
00> -31546
01> -54125
00> -31564
01> -54131
00> -31560
01> -54148
00> -31532
01> -54151
00> -31522
01> -54133
00> -31541
01> -54121
00> -31564
01> -54126
00> -31559
01> -54136
00> -31539
01> -54141
00> -31530
01> -54134
00> -31541
01> -54119
00> -31557
01> -54117
00> -31548
01> -54119
00> -31526
01> -54119
00> -31527
01> -54116
00> -31545
01> -54108
00> -31566
01> -54114
00> -31558
01> -54122
00> -31533
01> -54111
00> -31524
01> -54095
00> -31532
01> -54085
00> -31546
01> -54089
00> -31537
01> -54101
00> -31519
01> -54104
00> -31512
01> -54088
00> -31535
01> -54082
00> -31553
01> -54084
00> -31539
01> -54089
00> -31514
01> -54092
00> -31509
01> -54078
00> -31535
01> -54067
00> -31559
01> -54067
00> -31549
01> -54072
00> -31521
01> -54067
00> -31509
01> -54052
00> -31525
01> -54042
00> -31536
01> -54034
00> -31529
01> -54044
00> -31512
01> -54050
00> -31496
01> -54032
00> -31502
01> -54011
00> -31520
01> -54016
00> -31517
01> -54027
00> -31502
01> -54029
00> -31496
01> -54022
00> -31512
01> -54008
00> -31531
01> -54011
00> -31521
01> -54017
00> -31501
01> -54016
00> -31496
01> -54004
00> -31507
01> -53988
00> -31522
01> -53991
00> -31513
01> -53992
00> -31493
01> -53989
00> -31487
01> -53967
00> -31502
01> -53943
00> -31524
01> -53944
00> -31522
01> -53966
00> -31505
01> -53968
00> -31499
01> -53956
00> -31511
01> -53939
00> -31524
01> -53939
00> -31516
01> -53942
00> -31490
01> -53936
00> -31477
01> -53924
00> -31489
01> -53905
00> -31507
01> -53907
00> -31506
01> -53919
00> -31486
01> -53926
00> -31479
01> -53911
00> -31502
01> -53895
00> -31522
01> -53904
00> -31513
01> -53912
00> -31487
01> -53901
00> -31478
01> -53883
00> -31492
01> -53875
00> -31501
01> -53878
00> -31494
01> -53881
00> -31471
01> -53877
00> -31462
01> -53860
00> -31489
01> -53844
00> -31514
01> -53849
00> -31509
01> -53861
00> -31481
01> -53859
00> -31467
01> -53840
00> -31483
01> -53829
00> -31500
01> -53821
00> -31495
01> -53822
00> -31470
01> -53817
00> -31453
01> -53807
00> -31467
01> -53804
00> -31485
01> -53814
00> -31473
01> -53816
00> -31437
01> -53802
00> -31414
01> -53774
00> -31423
01> -53759
00> -31439
01> -53753
00> -31429
01> -53747
00> -31407
01> -53744
00> -31391
01> -53724
00> -31397
01> -53707
00> -31417
01> -53708
00> -31419
01> -53716
00> -31407
01> -53732
00> -31399
01> -53729
00> -31412
01> -53717
00> -31421
01> -53714
00> -31409
01> -53713
00> -31384
01> -53705
00> -31380
01> -53696
00> -31399
01> -53687
00> -31414
01> -53687
00> -31409
01> -53697
00> -31399
01> -53711
00> -31393
01> -53700
00> -31401
01> -53687
00> -31417
01> -53683
00> -31417
01> -53696
00> -31399
01> -53692
00> -31387
01> -53679
00> -31399
01> -53666
00> -31412

00> -31406
01> -53679
00> -31385
01> -53684
00> -31381
01> -53675
00> -31397
01> -53663
00> -31414
01> -53666
00> -31407
01> -53675
00> -31386
01> -53674
00> -31387
01> -53671
00> -31411
01> -53656
00> -31421
01> -53641
00> -31412
01> -53644
00> -31391
01> -53646
00> -31377
01> -53636
00> -31393
01> -53622
00> -31414
01> -53630
00> -31412
01> -53643
00> -31392
01> -53646
00> -31383
01> -53625
00> -31406
01> -53611
00> -31432
01> -53614
00> -31424
01> -53622
00> -31393
01> -53612
00> -31387
01> -53600
00> -31405
01> -53596
00> -31419
01> -53601
00> -31412
01> -53616
00> -31389
01> -53616
00> -31375
01> -53602
00> -31383
01> -53585
00> -31402
01> -53583
00> -31406
01> -53592
00> -31388
01> -53592
00> -31382
01> -53584
00> -31401
01> -53572
00> -31421
01> -53567
00> -31414
01> -53569
00> -31387
01> -53565
00> -31377
01> -53553
00> -31399
01> -53551
00> -31419
01> -53552
00> -31417
01> -53553
00> -31401
01> -53549
00> -31391
01> -53546
00> -31402
01> -53537
00> -31413
01> -53530
00> -31405
01> -53539
00> -31387
01> -53539
00> -31382
01> -53531
00> -31397
01> -53521
00> -31411
01> -53513
00> -31399
01> -53506
00> -31369
01> -53492
00> -31357
01> -53460
00> -31357
01> -53413
00> -31366
01> -53381
00> -31352
01> -53352
00> -31316
01> -53315
00> -31295
01> -53275
00> -31299
01> -53231
00> -31302
01> -53194
00> -31296
01> -53167
00> -31276
01> -53143
00> -31262
01> -53122
00> -31274
01> -53107
00> -31294
01> -53108
00> -31296
01> -53125
00> -31280
01> -53144
00> -31274
01> -53144
00> -31281
01> -53136
00> -31294
01> -53136
00> -31289
01> -53145
00> -31271
01> -53151
00> -31261
01> -53134
00> -31278
01> -53123
00> -31303
01> -53132
00> -31308
01> -53147
00> -31285
01> -53147
00> -31268
01> -53140
00> -31280
01> -53136
00> -31302
01> -53137
00> -31306
01> -53145
00> -31279
01> -53142
00> -31266
01> -53135
00> -31275
01> -53121
00> -31289
01> -53119
00> -31297
01> -53136
00> -31289
01> -53147
00> -31270
01> -53147
00> -31274
01> -53130
00> -31288
01> -53121
00> -31286
01> -53124
00> -31265
01> -53127
00> -31252
01> -53120
00> -31264
01> -53109
00> -31285
01> -53108
00> -31296
01> -53116
00> -31275
01> -53115
00> -31258
01> -53109
00> -31264
01> -53096
00> -31279
01> -53093
00> -31281
01> -53097
00> -31267
01> -53102
00> -31256
01> -53089
00> -31264
01> -53079
00> -31277
01> -53084
00> -31281
01> -53096
00> -31268
01> -53102
00> -31254
01> -53090
00> -31249
01> -53065
00> -31269
01> -53068
00> -31271
01> -53079
00> -31253
01> -53066
00> -31238
01> -53034
00> -31247
01> -52997
00> -31266
01> -52975
00> -31273
01> -52969
00> -31271
01> -52965
00> -31264
01> -52944
00> -31269
01> -52912
00> -31289
01> -52886
00> -31296
01> -52874
00> -31282
01> -52860
00> -31263
01> -52840
00> -31272
01> -52827
00> -31299
01> -52829
00> -31306
01> -52842
00> -31292
01> -52852
00> -31286
01> -52855
00> -31301
01> -52855
00> -31319
01> -52860
00> -31319
01> -52869
00> -31302
01> -52876
00> -31294
01> -52872
00> -31299
01> -52864
00> -31310
01> -52862
00> -31314
01> -52866
00> -31306
01> -52874
00> -31294
01> -52876
00> -31300
01> -52872
00> -31315
01> -52869
00> -31314
01> -52872
00> -31301
01> -52870
00> -31288
01> -52863
00> -31293
01> -52854
00> -31312
01> -52863
00> -31318
01> -52876
00> -31302
01> -52884
00> -31289
01> -52876
00> -31299
01> -52861
00> -31315
01> -52853
00> -31320
01> -52862
00> -31306
01> -52865
00> -31291
01> -52852
00> -31302
01> -52849
00> -31320
01> -52849
00> -31319
01> -52850
00> -31301
01> -52847
00> -31287
01> -52841
00> -31297
01> -52832
00> -31310
01> -52832
00> -31309
01> -52841
00> -31292
01> -52846
00> -31280
01> -52844
00> -31284
01> -52831
00> -31302
01> -52825
00> -31311
01> -52841
00> -31296
01> -52844
00> -31283
01> -52837
00> -31284
01> -52822
00> -31301
01> -52816
00> -31308
01> -52827
00> -31295
01> -52835
00> -31281
01> -52832
00> -31286
01> -52816
00> -31294
01> -52806
00> -31297
01> -52809
00> -31287
01> -52817
00> -31269
01> -52819
00> -31270
01> -52808
00> -31291
01> -52801
00> -31296
01> -52803
00> -31279
01> -52804
00> -31270
01> -52799
00> -31274
01> -52786
00> -31287
01> -52776
00> -31290
01> -52777
00> -31274
01> -52784
00> -31254
01> -52780
00> -31261
01> -52777
00> -31274
01> -52776
00> -31282
01> -52779
00> -31276
01> -52782
00> -31262
01> -52781
00> -31267
01> -52774
00> -31282
01> -52773
00> -31289
01> -52779
00> -31272
01> -52781
00> -31247
01> -52769
00> -31248
01> -52752
00> -31267
01> -52749
00> -31277
01> -52765
00> -31272
01> -52780
00> -31259
01> -52781
00> -31258
01> -52777
00> -31278
01> -52778
00> -31282
01> -52777
00> -31262
01> -52777
00> -31244
01> -52771
00> -31254
01> -52757
00> -31274
01> -52754
00> -31276
01> -52754
00> -31258
01> -52753
00> -31251
01> -52746
00> -31252
01> -52724
00> -31272
01> -52724
00> -31281
01> -52737
00> -31262
01> -52742
00> -31240
01> -52728
00> -31240
01> -52713
00> -31259
01> -52707
00> -31264
01> -52712
00> -31245
01> -52719
00> -31232
01> -52719
00> -31236
01> -52712
00> -31249
01> -52704
00> -31252
01> -52708
00> -31234
01> -52709
00> -31231
01> -52707
00> -31239
01> -52709
00> -31257
01> -52716
00> -31260
01> -52722
00> -31241
01> -52720
00> -31216
01> -52699
00> -31214
01> -52676
00> -31238
01> -52675
00> -31239
01> -52666
00> -31211
01> -52643
00> -31196
01> -52630
00> -31204
01> -52624
00> -31216
01> -52610
00> -31220
01> -52594
00> -31209
01> -52579
00> -31195
01> -52567
00> -31190
01> -52551
00> -31199
01> -52539
00> -31199
01> -52541
00> -31189
01> -52542
00> -31178
01> -52544
00> -31189
01> -52546
00> -31207
01> -52553
00> -31198
01> -52549
00> -31181
01> -52548
00> -31171
01> -52549
00> -31179
01> -52541
00> -31197
01> -52535
00> -31196
01> -52542
00> -31174
01> -52542
00> -31153
01> -52529
00> -31157
01> -52520
00> -31177
01> -52521
00> -31183
01> -52532
00> -31181
01> -52548
00> -31171
01> -52547
00> -31166
01> -52535
00> -31181
01> -52528
00> -31180
01> -52534
00> -31157
01> -52534
00> -31138
01> -52529
00> -31138
01> -52511
00> -31157
01> -52506
00> -31172
01> -52517
00> -31156
01> -52519
00> -31139
01> -52509
00> -31151
01> -52501
00> -31168
01> -52496
00> -31171
01> -52502
00> -31158
01> -52507
00> -31141
01> -52500
00> -31138
01> -52479
00> -31152
01> -52474
00> -31160
01> -52480
00> -31152
01> -52486
00> -31143
01> -52484
00> -31146
01> -52475
00> -31164
01> -52469
00> -31162
01> -52474
00> -31135
01> -52476
00> -31113
01> -52467
00> -31117
01> -52452
00> -31134
01> -52446
00> -31137
01> -52445
00> -31115
01> -52436
00> -31083
01> -52408
00> -31074
01> -52382
00> -31091
01> -52360
00> -31105
01> -52339
00> -31083
01> -52311
00> -31044
01> -52266
00> -31013
01> -52203
00> -30988
01> -52139
00> -30971
01> -52099
00> -30941
01> -52056
00> -30901
01> -51991
00> -30877
01> -51912
00> -30871
01> -51844
00> -30848
01> -51782
00> -30805
01> -51731
00> -30771
01> -51669
00> -30745
01> -51602
00> -30736
01> -51552
00> -30742
01> -51519
00> -30731
01> -51489
00> -30701
01> -51441
00> -30682
01> -51394
00> -30673
01> -51360
00> -30647
01> -51321
00> -30617
01> -51289
00> -30626
01> -51282
00> -30627
01> -51250
00> -30639
01> -51219
00> -30634
01> -51190
00> -30606
01> -51161
00> -30579
01> -51133
00> -30577
01> -51105
00> -30589
01> -51088
00> -30600
01> -51084
00> -30583
01> -51077
00> -30556
01> -51053
00> -30553
01> -51023
00> -30567
01> -51009
00> -30567
01> -51002
00> -30556
01> -51001
00> -30537
01> -50986
00> -30536
01> -50962
00> -30543
01> -50940
00> -30545
01> -50932
00> -30529
01> -50920
00> -30518
01> -50906
00> -30520
01> -50883
00> -30532
01> -50868
00> -30536
01> -50863
00> -30517
01> -50851
00> -30501
01> -50831
00> -30506
01> -50825
00> -30511
01> -50814
00> -30508
01> -50808
00> -30482
01> -50787
00> -30461
01> -50771
00> -30465
01> -50765
00> -30487
01> -50764
00> -30494
01> -50762
00> -30479
01> -50764
00> -30464
01> -50751
00> -30468
01> -50736
00> -30477
01> -50727
00> -30468
01> -50714
00> -30447
01> -50709
00> -30427
01> -50692
00> -30425
01> -50672
00> -30437
01> -50659
00> -30434
01> -50643
00> -30425
01> -50652
00> -30416
01> -50653
00> -30424
01> -50639
00> -30439
01> -50639
00> -30438
01> -50631
00> -30416
01> -50614
00> -30394
01> -50594
00> -30382
01> -50579
00> -30390
01> -50566
00> -30395
01> -50571
00> -30386
01> -50577
00> -30371
01> -50571
00> -30368
01> -50559
00> -30374
01> -50537
00> -30383
01> -50539
00> -30376
01> -50541
00> -30366
01> -50536
00> -30362
01> -50519
00> -30367
01> -50505
00> -30366
01> -50505
00> -30354
01> -50514
00> -30338
01> -50509
00> -30335
01> -50491
00> -30347
01> -50479
00> -30346
01> -50482
00> -30325
01> -50481
00> -30313
01> -50478
00> -30331
01> -50475
00> -30358
01> -50478
00> -30365
01> -50488
00> -30344
01> -50486
00> -30335
01> -50487
00> -30344
01> -50482
00> -30354
01> -50476
00> -30356
01> -50468
00> -30345
01> -50465
00> -30327
01> -50456
00> -30316
01> -50437
00> -30319
01> -50424
00> -30328
01> -50427
00> -30314
01> -50432
00> -30296
01> -50429
00> -30294
01> -50412
00> -30313
01> -50399
00> -30317
01> -50391
00> -30302
01> -50394
00> -30274
01> -50387
00> -30263
01> -50369
00> -30277
01> -50355
00> -30291
01> -50362
00> -30280
01> -50364
00> -30268
01> -50362
00> -30267
01> -50347
00> -30278
01> -50339
00> -30280
01> -50340
00> -30265
01> -50341
00> -30254
01> -50344
00> -30257
01> -50341
00> -30276
01> -50339
00> -30287
01> -50346
00> -30266
01> -50345
00> -30246
01> -50328
00> -30248
01> -50316
00> -30264
01> -50309
00> -30261
01> -50296
00> -30241
01> -50286
00> -30234
01> -50293
00> -30241
01> -50293
00> -30252
01> -50289
00> -30257
01> -50293
00> -30254
01> -50309
00> -30245
01> -50312
00> -30234
01> -50296
00> -30248
01> -50289
00> -30267
01> -50301
00> -30278
01> -50327
00> -30269
01> -50336
00> -30265
01> -50326
00> -30271
01> -50310
00> -30272
01> -50298
00> -30258
01> -50298
00> -30245
01> -50293
00> -30249
01> -50281
00> -30262
01> -50261
00> -30268
01> -50260
00> -30261
01> -50267
00> -30241
01> -50251
00> -30239
01> -50234
00> -30248
01> -50219
00> -30246
01> -50211
00> -30225
01> -50203
00> -30202
01> -50191
00> -30211
01> -50203
00> -30237
01> -50214
00> -30252
01> -50224
00> -30250
01> -50231
00> -30242
01> -50229
00> -30252
01> -50234
00> -30272
01> -50247
00> -30286
01> -50252
00> -30279
01> -50256
00> -30251
01> -50247
00> -30241
01> -50242
00> -30249
01> -50244
00> -30263
01> -50250
00> -30248
01> -50246
00> -30239
01> -50241
00> -30245
01> -50229
00> -30261
01> -50216
00> -30269
01> -50218
00> -30256
01> -50220
00> -30232
01> -50210
00> -30221
01> -50182
00> -30232
01> -50170
00> -30246
01> -50189
00> -30231
01> -50202
00> -30209
01> -50201
00> -30216
01> -50192
00> -30237
01> -50182
00> -30248
01> -50183
00> -30239
01> -50186
00> -30236
01> -50192
00> -30241
01> -50187
00> -30255
01> -50185
00> -30260
01> -50197
00> -30250
01> -50209
00> -30232
01> -50210
00> -30231
01> -50199
00> -30251
01> -50196
00> -30264
01> -50202
00> -30251
01> -50206
00> -30239
01> -50207
00> -30242
01> -50206
00> -30257
01> -50199
00> -30263
01> -50201
00> -30252
01> -50201
00> -30233
01> -50183
00> -30229
01> -50167
00> -30250

00> -30265
01> -50188
00> -30264
01> -50201
00> -30252
01> -50201
00> -30257
01> -50195
00> -30279
01> -50197
00> -30306
01> -50211
00> -30302
01> -50223
00> -30289
01> -50227
00> -30290
01> -50222
00> -30302
01> -50220
00> -30300
01> -50218
00> -30295
01> -50237
00> -30287
01> -50248
00> -30289
01> -50242
00> -30311
01> -50239
00> -30326
01> -50252
00> -30330
01> -50273
00> -30321
01> -50287
00> -30319
01> -50287
00> -30334
01> -50282
00> -30349
01> -50292
00> -30342
01> -50290
00> -30321
01> -50284
00> -30325
01> -50283
00> -30349
01> -50282
00> -30361
01> -50286
00> -30352
01> -50294
00> -30335
01> -50298
00> -30333
01> -50287
00> -30344
01> -50284
00> -30357
01> -50298
00> -30351
01> -50314
00> -30331
01> -50313
00> -30327
01> -50307
00> -30347
01> -50310
00> -30369
01> -50322
00> -30366
01> -50325
00> -30351
01> -50326
00> -30348
01> -50322
00> -30350
01> -50313
00> -30359
01> -50307
00> -30362
01> -50312
00> -30357
01> -50321
00> -30360
01> -50326
00> -30364
01> -50316
00> -30361
01> -50308
00> -30358
01> -50317
00> -30352
01> -50330
00> -30345
01> -50329
00> -30350
01> -50318
00> -30360
01> -50321
00> -30369
01> -50338
00> -30361
01> -50344
00> -30359
01> -50336
00> -30373
01> -50329
00> -30376
01> -50332
00> -30362
01> -50331
00> -30350
01> -50325
00> -30356
01> -50325
00> -30374
01> -50318
00> -30377
01> -50312
00> -30372
01> -50324
00> -30361
01> -50330
00> -30363
01> -50326
00> -30382
01> -50328
00> -30398
01> -50337
00> -30388
01> -50347
00> -30355
01> -50322
00> -30361
01> -50306
00> -30389
01> -50312
00> -30402
01> -50319
00> -30396
01> -50334
00> -30381
01> -50341
00> -30378
01> -50326
00> -30389
01> -50316
00> -30392
01> -50311
00> -30392
01> -50322
00> -30389
01> -50331
00> -30385
01> -50326
00> -30394
01> -50329
00> -30404
01> -50336
00> -30392
01> -50341
00> -30377
01> -50340
00> -30379
01> -50331
00> -30394
01> -50326
00> -30411
01> -50335
00> -30418
01> -50349
00> -30402
01> -50349
00> -30396
01> -50344
00> -30403
01> -50340
00> -30416
01> -50336
00> -30422
01> -50342
00> -30416
01> -50347
00> -30411
01> -50331
00> -30421
01> -50314
00> -30426
01> -50314
00> -30417
01> -50319
00> -30404
01> -50314
00> -30406
01> -50305
00> -30416
01> -50298
00> -30427
01> -50301
00> -30419
01> -50312
00> -30401
01> -50315
00> -30399
01> -50308
00> -30410
01> -50296
00> -30416
01> -50290
00> -30406
01> -50287
00> -30387
01> -50281
00> -30385
01> -50275
00> -30402
01> -50265
00> -30412
01> -50264
00> -30405
01> -50269
00> -30392
01> -50272
00> -30384
01> -50261
00> -30392
01> -50247
00> -30400
01> -50249
00> -30396
01> -50265
00> -30387
01> -50272
00> -30393
01> -50282
00> -30414
01> -50287
00> -30424
01> -50287
00> -30414
01> -50291
00> -30403
01> -50288
00> -30393
01> -50271
00> -30400
01> -50252
00> -30408
01> -50251
00> -30398
01> -50255
00> -30391
01> -50261
00> -30399
01> -50257
00> -30405
01> -50246
00> -30406
01> -50232
00> -30395
01> -50232
00> -30377
01> -50222
00> -30375
01> -50212
00> -30384
01> -50198
00> -30389
01> -50189
00> -30376
01> -50196
00> -30358
01> -50195
00> -30358
01> -50199
00> -30377
01> -50206
00> -30395
01> -50214
00> -30396
01> -50221
00> -30381
01> -50229
00> -30379
01> -50236
00> -30397
01> -50241
00> -30411
01> -50244
00> -30413
01> -50259
00> -30402
01> -50258
00> -30406
01> -50257
00> -30423
01> -50256
00> -30426
01> -50244
00> -30419
01> -50247
00> -30406
01> -50254
00> -30391
01> -50233
00> -30397
01> -50217
00> -30411
01> -50216
00> -30396
01> -50209
00> -30381
01> -50207
00> -30379
01> -50202
00> -30387
01> -50192
00> -30387
01> -50191
00> -30379
01> -50182
00> -30360
01> -50174
00> -30351
01> -50166
00> -30359
01> -50157
00> -30376
01> -50170
00> -30366
01> -50181
00> -30355
01> -50187
00> -30365
01> -50192
00> -30377
01> -50192
00> -30401
01> -50204
00> -30401
01> -50214
00> -30383
01> -50212
00> -30374
01> -50202
00> -30384
01> -50192
00> -30396
01> -50193
00> -30391
01> -50194
00> -30378
01> -50199
00> -30380
01> -50192
00> -30386
01> -50176
00> -30391
01> -50169
00> -30396
01> -50178
00> -30389
01> -50176
00> -30381
01> -50164
00> -30389
01> -50154
00> -30396
01> -50156
00> -30390
01> -50166
00> -30377
01> -50176
00> -30366
01> -50173
00> -30377
01> -50175
00> -30398
01> -50191
00> -30404
01> -50207
00> -30386
01> -50216
00> -30379
01> -50211
00> -30404
01> -50213
00> -30418
01> -50222
00> -30401
01> -50220
00> -30381
01> -50212
00> -30372
01> -50194
00> -30389
01> -50192
00> -30402
01> -50197
00> -30392
01> -50197
00> -30380
01> -50202
00> -30377
01> -50191
00> -30392
01> -50179
00> -30405
01> -50181
00> -30400
01> -50187
00> -30386
01> -50196
00> -30381
01> -50196
00> -30384
01> -50180
00> -30391
01> -50180
00> -30389
01> -50191
00> -30376
01> -50185
00> -30380
01> -50194
00> -30400
01> -50198
00> -30415
01> -50197
00> -30417
01> -50209
00> -30399
01> -50214
00> -30387
01> -50195
00> -30402
01> -50181
00> -30409
01> -50181
00> -30402
01> -50180
00> -30387
01> -50188
00> -30379
01> -50179
00> -30387
01> -50165
00> -30395
01> -50157
00> -30379
01> -50152
00> -30364
01> -50143
00> -30373
01> -50144
00> -30388
01> -50145
00> -30403
01> -50149
00> -30399
01> -50158
00> -30379
01> -50157
00> -30374
01> -50149
00> -30391
01> -50147
00> -30406
01> -50154
00> -30407
01> -50164
00> -30399
01> -50176
00> -30387
01> -50161
00> -30393
01> -50152
00> -30406
01> -50159
00> -30409
01> -50169
00> -30397
01> -50172
00> -30392
01> -50165
00> -30404
01> -50163
00> -30416
01> -50161
00> -30402
01> -50152
00> -30394
01> -50149
00> -30391
01> -50147
00> -30396
01> -50131
00> -30401
01> -50121
00> -30394
01> -50119
00> -30384
01> -50127
00> -30371
01> -50114
00> -30385
01> -50104
00> -30402
01> -50115
00> -30399
01> -50122
00> -30387
01> -50122
00> -30385
01> -50122
00> -30397
01> -50114
00> -30404
01> -50114
00> -30403
01> -50130
00> -30399
01> -50144
00> -30393
01> -50147
00> -30401
01> -50143
00> -30415
01> -50146
00> -30408
01> -50145
00> -30387
01> -50140
00> -30396
01> -50149
00> -30409
01> -50144
00> -30424
01> -50139
00> -30426
01> -50147
00> -30406
01> -50146
00> -30396
01> -50131
00> -30404
01> -50121
00> -30409
01> -50106
00> -30402
01> -50111
00> -30396
01> -50121
00> -30401
01> -50122
00> -30418
01> -50121
00> -30430
01> -50126
00> -30427
01> -50127
00> -30406
01> -50122
00> -30403
01> -50113
00> -30415
01> -50104
00> -30429
01> -50102
00> -30421
01> -50112
00> -30411
01> -50123
00> -30410
01> -50123
00> -30427
01> -50111
00> -30446
01> -50106
00> -30449
01> -50122
00> -30429
01> -50124
00> -30406
01> -50105
00> -30420
01> -50104
00> -30433
01> -50101
00> -30427
01> -50105
00> -30404
01> -50100
00> -30399
01> -50092
00> -30401
01> -50081
00> -30408
01> -50064
00> -30411
01> -50067
00> -30400
01> -50081
00> -30384
01> -50069
00> -30386
01> -50049
00> -30403
01> -50044
00> -30407
01> -50059
00> -30401
01> -50064
00> -30386
01> -50052
00> -30382
01> -50030
00> -30396
01> -50023
00> -30414
01> -50041
00> -30407
01> -50048
00> -30402
01> -50047
00> -30407
01> -50036
00> -30417
01> -50039
00> -30414
01> -50046
00> -30394
01> -50053
00> -30382
01> -50042
00> -30393
01> -50021
00> -30411
01> -50013
00> -30406
01> -50020
00> -30390
01> -50024
00> -30383
01> -50014
00> -30389
01> -49998
00> -30405
01> -49997
00> -30405
01> -50000
00> -30387
01> -50002
00> -30384
01> -49997
00> -30394
01> -49982
00> -30417
01> -49993
00> -30422
01> -50011
00> -30407
01> -50017
00> -30388
01> -49996
00> -30398
01> -49979
00> -30412
01> -49969
00> -30413
01> -49970
00> -30401
01> -49974
00> -30387
01> -49966
00> -30397
01> -49962
00> -30410
01> -49959
00> -30409
01> -49968
00> -30393
01> -49968
00> -30389
01> -49963
00> -30405
01> -49964
00> -30418
01> -49965
00> -30417
01> -49976
00> -30401
01> -49969
00> -30387
01> -49959
00> -30399
01> -49946
00> -30416
01> -49946
00> -30419
01> -49951
00> -30401
01> -49951
00> -30392
01> -49955
00> -30404
01> -49961
00> -30418
01> -49957
00> -30421
01> -49952
00> -30407
01> -49957
00> -30393
01> -49955
00> -30399
01> -49951
00> -30414
01> -49950
00> -30407
01> -49956
00> -30397
01> -49958
00> -30393
01> -49949
00> -30401
01> -49946
00> -30412
01> -49941
00> -30406
01> -49941
00> -30392
01> -49936
00> -30384
01> -49933
00> -30401
01> -49934
00> -30414
01> -49934
00> -30417
01> -49941
00> -30404
01> -49953
00> -30387
01> -49946
00> -30398
01> -49927
00> -30426
01> -49936
00> -30427
01> -49944
00> -30401
01> -49940
00> -30381
01> -49926
00> -30401
01> -49927
00> -30426
01> -49933
00> -30430
01> -49935
00> -30419
01> -49940
00> -30410
01> -49939
00> -30407
01> -49924
00> -30414
01> -49916
00> -30422
01> -49916
00> -30409
01> -49921
00> -30404
01> -49918
00> -30407
01> -49908
00> -30417
01> -49906
00> -30416
01> -49913
00> -30401
01> -49912
00> -30397
01> -49900
00> -30406
01> -49891
00> -30423
01> -49894
00> -30432
01> -49904
00> -30412
01> -49904
00> -30389
01> -49896
00> -30400
01> -49887
00> -30419
01> -49889
00> -30424
01> -49897
00> -30410
01> -49901
00> -30392
01> -49881
00> -30402
01> -49866
00> -30425
01> -49871
00> -30417
01> -49872
00> -30394
01> -49862
00> -30391
01> -49859
00> -30392
01> -49847
00> -30402
01> -49827
00> -30403
01> -49824
00> -30382
01> -49820
00> -30361
01> -49802
00> -30371
01> -49798
00> -30391
01> -49804
00> -30392
01> -49817
00> -30376
01> -49812
00> -30366
01> -49804
00> -30370
01> -49793
00> -30379
01> -49784
00> -30376
01> -49791
00> -30369
01> -49799
00> -30367
01> -49794
00> -30381
01> -49779
00> -30396
01> -49771
00> -30402
01> -49784
00> -30377
01> -49782
00> -30350
01> -49762
00> -30364
01> -49759
00> -30390
01> -49769
00> -30388
01> -49768
00> -30369
01> -49764
00> -30349
01> -49753
00> -30352
01> -49733
00> -30366
01> -49716
00> -30354
01> -49706
00> -30331
01> -49694
00> -30314
01> -49672
00> -30314
01> -49651
00> -30326
01> -49641
00> -30329
01> -49646
00> -30320
01> -49646
00> -30305
01> -49631
00> -30299
01> -49608
00> -30301
01> -49601
00> -30301
01> -49608
00> -30294
01> -49621
00> -30287
01> -49623
00> -30296
01> -49622
00> -30313
01> -49618
00> -30315
01> -49621
00> -30304
01> -49629
00> -30297
01> -49629
00> -30294
01> -49605
00> -30306
01> -49592
00> -30315
01> -49595
00> -30314
01> -49606
00> -30303
01> -49596
00> -30307
01> -49582
00> -30321
01> -49583
00> -30326
01> -49595
00> -30304
01> -49602
00> -30292
01> -49593
00> -30301
01> -49590
00> -30309
01> -49591
00> -30309
01> -49597
00> -30301
01> -49591
00> -30291
01> -49583
00> -30306
01> -49589
00> -30332
01> -49602
00> -30331
01> -49601
00> -30314
01> -49604
00> -30299
01> -49592
00> -30298
01> -49573
00> -30314
01> -49569
00> -30319
01> -49576
00> -30297
01> -49569
00> -30287
01> -49567
00> -30301
01> -49571
00> -30322
01> -49576
00> -30321
01> -49574
00> -30307
01> -49567
00> -30291
01> -49564
00> -30297
01> -49555
00> -30314
01> -49554
00> -30317
01> -49557
00> -30292
01> -49554
00> -30287
01> -49556
00> -30297
01> -49559
00> -30312
01> -49561
00> -30318
01> -49570
00> -30313
01> -49579
00> -30297
01> -49572
00> -30297
01> -49562
00> -30317
01> -49563
00> -30327
01> -49570
00> -30307
01> -49561
00> -30294
01> -49554
00> -30297
01> -49541
00> -30310
01> -49540
00> -30314
01> -49551
00> -30296
01> -49549
00> -30282
01> -49540
00> -30290
01> -49531
00> -30304
01> -49519
00> -30316
01> -49530
00> -30310
01> -49542
00> -30296
01> -49536
00> -30300
01> -49521
00> -30314
01> -49517
00> -30309
01> -49517
00> -30292
01> -49521
00> -30286
01> -49516
00> -30299
01> -49508
00> -30316
01> -49504
00> -30327
01> -49516
00> -30306
01> -49519
00> -30288
01> -49502
00> -30301
01> -49501
00> -30317
01> -49504
00> -30325
01> -49519
00> -30314
01> -49524
00> -30297
01> -49516
00> -30294
01> -49496
00> -30307
01> -49481
00> -30308
01> -49476
00> -30292
01> -49477
00> -30286
01> -49481
00> -30296
01> -49478
00> -30312
01> -49469
00> -30317
01> -49472
00> -30307
01> -49474
00> -30297
01> -49470
00> -30297
01> -49459
00> -30303
01> -49447
00> -30308
01> -49457
00> -30297
01> -49461
00> -30286
01> -49449
00> -30288
01> -49436
00> -30298
01> -49441
00> -30307
01> -49446
00> -30295
01> -49440
00> -30279
01> -49428
00> -30294
01> -49429
00> -30314
01> -49428
00> -30319
01> -49439
00> -30299
01> -49445
00> -30279
01> -49427
00> -30276
01> -49413
00> -30291
01> -49418
00> -30290
01> -49419
00> -30271
01> -49410
00> -30262
01> -49393
00> -30256
01> -49362
00> -30269
01> -49337
00> -30287
01> -49346
00> -30276
01> -49355
00> -30255
01> -49341
00> -30251
01> -49319
00> -30261
01> -49312
00> -30263
01> -49310
00> -30249
01> -49306
00> -30231
01> -49302
00> -30235
01> -49294
00> -30250
01> -49289
00> -30256
01> -49297
00> -30253
01> -49305
00> -30241
01> -49302
00> -30234
01> -49288
00> -30248
01> -49280
00> -30261
01> -49283
00> -30257
01> -49296
00> -30233
01> -49287
00> -30219
01> -49257
00> -30223
01> -49230
00> -30235
01> -49227
00> -30227
01> -49228
00> -30199
01> -49211
00> -30192
01> -49193
00> -30207
01> -49183
00> -30214
01> -49175
00> -30190
01> -49164
00> -30163
01> -49144
00> -30159
01> -49123
00> -30170
01> -49117
00> -30168
01> -49116
00> -30146
01> -49107
00> -30125
01> -49092
00> -30131
01> -49081
00> -30156
01> -49080
00> -30159
01> -49076
00> -30141
01> -49077
00> -30122
01> -49069
00> -30124
01> -49061
00> -30133
01> -49049
00> -30131
01> -49038
00> -30119
01> -49034
00> -30115
01> -49046
00> -30119
01> -49039
00> -30127
01> -49029
00> -30132
01> -49034
00> -30125
01> -49039
00> -30112
01> -49036
00> -30117
01> -49029
00> -30137
01> -49037
00> -30148
01> -49054
00> -30134
01> -49067
00> -30122
01> -49074
00> -30134
01> -49076
00> -30160
01> -49081
00> -30174
01> -49101
00> -30157
01> -49109
00> -30138
01> -49104
00> -30141
01> -49089
00> -30168
01> -49087
00> -30187
01> -49104
00> -30182
01> -49123
00> -30162
01> -49111
00> -30160
01> -49094
00> -30179
01> -49094
00> -30191
01> -49106
00> -30182
01> -49111
00> -30174
01> -49111
00> -30177
01> -49108
00> -30185
01> -49098
00> -30196
01> -49104
00> -30190
01> -49113
00> -30167
01> -49111
00> -30170
01> -49104
00> -30192
01> -49101
00> -30204
01> -49114
00> -30194
01> -49125
00> -30180
01> -49116
00> -30192
01> -49111
00> -30207
01> -49105
00> -30212
01> -49112
00> -30208
01> -49119
00> -30199
01> -49117
00> -30192
01> -49106
00> -30192
01> -49091
00> -30204
01> -49089
00> -30205
01> -49105
00> -30184
01> -49099
00> -30177
01> -49074
00> -30194
01> -49059
00> -30206
01> -49055
00> -30197
01> -49062
00> -30187
01> -49072
00> -30196
01> -49072
00> -30210
01> -49069
00> -30211
01> -49068
00> -30216
01> -49076
00> -30205
01> -49082
00> -30201
01> -49075
00> -30217
01> -49082
00> -30226
01> -49093
00> -30218
01> -49097
00> -30206
01> -49099
00> -30206
01> -49089
00> -30225
01> -49082
00> -30237
01> -49094
00> -30226
01> -49107
00> -30205
01> -49094
00> -30201
01> -49085
00> -30226
01> -49085
00> -30245
01> -49088
00> -30233
01> -49091
00> -30213
01> -49086
00> -30212
01> -49074
00> -30220
01> -49067
00> -30234
01> -49086
00> -30217
01> -49091
00> -30199
01> -49078
00> -30199
01> -49057
00> -30216
01> -49047
00> -30230
01> -49057
00> -30229
01> -49070
00> -30218
01> -49064
00> -30213
01> -49042
00> -30216
01> -49019
00> -30227
01> -49022
00> -30212
01> -49029
00> -30189
01> -49015
00> -30189
01> -49007
00> -30221
01> -49022
00> -30232
01> -49025
00> -30227
01> -49029
00> -30222
01> -49033
00> -30227
01> -49026
00> -30234
01> -49009
00> -30240
01> -49005
00> -30236
01> -49010
00> -30222
01> -49008
00> -30226
01> -49002
00> -30234
01> -48996
00> -30235
01> -48999
00> -30225
01> -49004
00> -30207
01> -48997
00> -30212
01> -48986
00> -30233
01> -48974
00> -30241
01> -48977
00> -30238
01> -48979
00> -30221
01> -48970
00> -30218
01> -48961
00> -30238
01> -48966
00> -30246
01> -48971
00> -30239
01> -48982
00> -30219
01> -48981
00> -30216
01> -48964
00> -30233
01> -48959
00> -30240
01> -48967
00> -30230
01> -48974
00> -30212
01> -48972
00> -30219
01> -48960
00> -30238
01> -48953
00> -30246
01> -48954
00> -30236
01> -48960
00> -30219
01> -48956
00> -30212
01> -48945
00> -30217
01> -48929
00> -30221
01> -48918
00> -30208
01> -48914
00> -30199
01> -48917
00> -30204
01> -48911
00> -30215
01> -48904
00> -30217
01> -48906
00> -30201
01> -48906
00> -30194
01> -48917
00> -30196
01> -48914
00> -30211
01> -48908
00> -30221
01> -48910
00> -30211
01> -48916
00> -30192
01> -48915
00> -30187
01> -48911
00> -30201
01> -48907
00> -30214
01> -48918
00> -30199
01> -48924
00> -30175
01> -48915
00> -30171
01> -48895
00> -30182
01> -48888
00> -30189
01> -48890
00> -30180
01> -48888
00> -30164
01> -48884
00> -30167
01> -48868
00> -30177
01> -48850
00> -30187
01> -48853
00> -30181
01> -48856
00> -30159
01> -48854
00> -30154
01> -48839
00> -30166
01> -48828
00> -30174
01> -48829
00> -30165
01> -48834
00> -30151
01> -48830
00> -30154
01> -48818
00> -30171
01> -48815
00> -30172
01> -48814
00> -30161
01> -48828
00> -30147
01> -48832
00> -30150
01> -48828
00> -30165
01> -48820
00> -30164
01> -48812
00> -30147
01> -48810
00> -30127
01> -48799
00> -30126
01> -48787
00> -30142
01> -48782
00> -30161
01> -48791
00> -30154
01> -48801
00> -30137
01> -48800
00> -30135
01> -48787
00> -30142
01> -48771
00> -30157
01> -48771
00> -30148
01> -48781
00> -30131
01> -48781
00> -30123
01> -48769
00> -30132
01> -48750
00> -30149
01> -48749
00> -30145
01> -48755
00> -30137
01> -48759
00> -30141
01> -48752
00> -30156
01> -48749
00> -30161
01> -48746
00> -30145
01> -48745
00> -30132
01> -48742
00> -30140
01> -48742
00> -30156
01> -48739
00> -30166
01> -48734
00> -30168
01> -48736
00> -30156
01> -48731
00> -30144
01> -48718
00> -30149
01> -48700
00> -30156
01> -48691
00> -30151
01> -48696
00> -30133
01> -48692
00> -30129
01> -48674
00> -30140
01> -48654
00> -30147
01> -48651
00> -30140
01> -48652
00> -30128
01> -48649
00> -30129
01> -48637
00> -30146
01> -48633
00> -30162
01> -48634
00> -30157
01> -48641
00> -30141
01> -48643
00> -30129
01> -48637
00> -30139
01> -48630
00> -30155
01> -48631
00> -30147
01> -48627
00> -30132
01> -48621
00> -30137
01> -48619
00> -30147
01> -48603
00> -30161
01> -48596
00> -30162
01> -48605
00> -30156
01> -48606
00> -30159
01> -48594
00> -30167
01> -48582
00> -30167
01> -48566
00> -30156
01> -48564
00> -30149
01> -48568
00> -30151
01> -48562
00> -30166
01> -48552
00> -30177
01> -48551
00> -30181
01> -48559
00> -30170
01> -48564
00> -30162
01> -48552
00> -30187
01> -48549
00> -30212
01> -48551
00> -30207
01> -48560
00> -30187
01> -48564
00> -30186
01> -48549
00> -30202
01> -48547
00> -30209
01> -48542
00> -30199
01> -48549
00> -30177
01> -48542
00> -30167
01> -48514
00> -30186
01> -48506
00> -30212
01> -48526
00> -30208
01> -48539
00> -30192
01> -48538
00> -30184
01> -48524
00> -30191
01> -48512
00> -30210
01> -48517
00> -30219
01> -48530
00> -30216
01> -48541
00> -30213
01> -48537
00> -30225
01> -48527
00> -30232
01> -48531
00> -30229
01> -48541
00> -30224
01> -48549
00> -30223
01> -48541
00> -30229
01> -48521
00> -30233
01> -48517
00> -30228
01> -48527
00> -30206
01> -48523
00> -30206
01> -48517
00> -30222
01> -48509
00> -30231
01> -48507
00> -30227
01> -48517
00> -30204
01> -48514
00> -30193
01> -48497
00> -30199
01> -48491
00> -30206
01> -48496
00> -30192
01> -48490
00> -30175
01> -48480
00> -30180
01> -48479
00> -30189
01> -48477
00> -30198
01> -48480
00> -30196
01> -48493
00> -30177
01> -48496
00> -30172
01> -48496
00> -30180
01> -48491
00> -30192
01> -48489
00> -30181
01> -48489
00> -30164
01> -48497
00> -30161
01> -48497
00> -30171
01> -48488
00> -30182
01> -48486
00> -30177
01> -48491
00> -30149
01> -48485
00> -30140
01> -48472
00> -30144
01> -48463
00> -30143
01> -48457
00> -30139
01> -48459
00> -30121
01> -48454
00> -30102
01> -48435
00> -30109
01> -48416
00> -30131
01> -48431
00> -30126
01> -48442
00> -30104
01> -48441
00> -30086
01> -48436
00> -30090
01> -48420
00> -30106
01> -48416
00> -30099
01> -48422
00> -30082
01> -48427
00> -30081
01> -48430
00> -30085
01> -48427
00> -30098
01> -48426
00> -30100
01> -48441
00> -30087
01> -48451
00> -30079
01> -48444
00> -30084
01> -48425
00> -30097
01> -48417
00> -30091
01> -48423
00> -30072
01> -48422
00> -30069
01> -48409
00> -30082
01> -48399
00> -30091
01> -48391
00> -30080
01> -48383
00> -30062
01> -48379
00> -30054
01> -48362
00> -30058
01> -48339
00> -30065
01> -48332
00> -30057
01> -48339
00> -30039
01> -48344
00> -30037
01> -48337
00> -30044
01> -48326
00> -30049
01> -48327
00> -30050
01> -48338
00> -30051
01> -48354
00> -30052
01> -48351
00> -30057
01> -48346
00> -30064
01> -48338
00> -30064
01> -48337
00> -30056
01> -48337
00> -30051
01> -48331
00> -30059
01> -48321
00> -30071
01> -48319
00> -30067
01> -48313
00> -30051
01> -48307
00> -30047
01> -48297
00> -30060
01> -48282
00> -30072
01> -48277
00> -30065
01> -48272
00> -30047
01> -48271
00> -30043
01> -48257
00> -30062
01> -48246
00> -30078
01> -48253
00> -30076
01> -48263
00> -30060
01> -48262
00> -30052
01> -48256
00> -30057
01> -48242
00> -30068
01> -48247
00> -30067
01> -48259
00> -30063
01> -48271
00> -30073
01> -48274
00> -30090
01> -48268
00> -30097
01> -48271
00> -30087
01> -48281
00> -30072
01> -48291
00> -30071
01> -48282
00> -30086
01> -48272
00> -30089
01> -48261
00> -30077
01> -48256
00> -30063
01> -48253
00> -30056
01> -48245
00> -30062
01> -48235
00> -30074
01> -48223
00> -30077
01> -48218
00> -30064
01> -48224
00> -30056
01> -48220
00> -30066
01> -48216
00> -30075
01> -48209
00> -30071
01> -48214
00> -30061
01> -48236
00> -30060
01> -48247
00> -30067
01> -48243
00> -30086
01> -48242
00> -30090
01> -48251
00> -30079
01> -48256
00> -30077
01> -48256
00> -30082
01> -48238
00> -30095
01> -48239
00> -30094
01> -48252
00> -30083
01> -48251
00> -30080
01> -48243
00> -30089
01> -48230
00> -30093
01> -48221
00> -30084
01> -48217
00> -30071
01> -48214
00> -30066
01> -48209
00> -30071
01> -48195
00> -30086
01> -48188
00> -30078
01> -48189
00> -30066
01> -48192
00> -30069
01> -48191
00> -30081
01> -48184
00> -30086
01> -48184
00> -30086
01> -48199
00> -30071
01> -48206
00> -30067
01> -48211
00> -30079
01> -48206
00> -30089
01> -48206
00> -30091
01> -48212
00> -30082
01> -48222
00> -30081
01> -48217
00> -30096
01> -48201
00> -30109
01> -48191
00> -30104
01> -48193
00> -30079
01> -48194
00> -30072

00> -30083
01> -48174
00> -30094
01> -48171
00> -30091
01> -48178
00> -30071
01> -48171
00> -30068
01> -48157
00> -30079
01> -48141
00> -30090
01> -48136
00> -30086
01> -48142
00> -30068
01> -48151
00> -30066
01> -48138
00> -30077
01> -48134
00> -30093
01> -48137
00> -30086
01> -48145
00> -30064
01> -48147
00> -30060
01> -48142
00> -30072
01> -48141
00> -30094
01> -48149
00> -30107
01> -48162
00> -30096
01> -48168
00> -30086
01> -48155
00> -30091
01> -48131
00> -30100
01> -48127
00> -30097
01> -48126
00> -30081
01> -48121
00> -30087
01> -48133
00> -30102
01> -48129
00> -30112
01> -48122
00> -30116
01> -48122
00> -30104
01> -48121
00> -30092
01> -48111
00> -30101
01> -48096
00> -30121
01> -48098
00> -30124
01> -48106
00> -30111
01> -48117
00> -30111
01> -48127
00> -30121
01> -48120
00> -30130
01> -48111
00> -30124
01> -48121
00> -30112
01> -48125
00> -30098
01> -48109
00> -30105
01> -48088
00> -30124
01> -48085
00> -30124
01> -48096
00> -30102
01> -48094
00> -30092
01> -48073
00> -30107
01> -48055
00> -30117
01> -48052
00> -30104
01> -48054
00> -30079
01> -48054
00> -30059
01> -48051
00> -30064
01> -48039
00> -30080
01> -48031
00> -30076
01> -48038
00> -30054
01> -48034
00> -30049
01> -48029
00> -30060
01> -48024
00> -30073
01> -48033
00> -30063
01> -48043
00> -30036
01> -48044
00> -30030
01> -48034
00> -30050
01> -48024
00> -30063
01> -48020
00> -30062
01> -48032
00> -30045
01> -48037
00> -30031
01> -48030
00> -30040
01> -48019
00> -30058
01> -48017
00> -30062
01> -48026
00> -30050
01> -48032
00> -30037
01> -48022
00> -30036
01> -47995
00> -30043
01> -47976
00> -30047
01> -47978
00> -30036
01> -47985
00> -30025
01> -47985
00> -30017
01> -47969
00> -30022
01> -47966
00> -30037
01> -47983
00> -30036
01> -47994
00> -30031
01> -47994
00> -30035
01> -47978
00> -30046
01> -47972
00> -30044
01> -47974
00> -30034
01> -47974
00> -30018
01> -47967
00> -30017
01> -47952
00> -30027
01> -47944
00> -30031
01> -47945
00> -30025
01> -47951
00> -30009
01> -47945
00> -30012
01> -47932
00> -30024
01> -47916
00> -30017
01> -47914
00> -30006
01> -47920
00> -30000
01> -47918
00> -30006
01> -47906
00> -30015
01> -47906
00> -30017
01> -47909
00> -30002
01> -47913
00> -29992
01> -47906
00> -30005
01> -47905
00> -30026
01> -47912
00> -30019
01> -47920
00> -30003
01> -47922
00> -30001
01> -47925
00> -30003
01> -47917
00> -30012
01> -47909
00> -30017
01> -47917
00> -30003
01> -47924
00> -29992
01> -47912
00> -29997
01> -47896
00> -30016
01> -47894
00> -30012
01> -47898
00> -29992
01> -47896
00> -29986
01> -47884
00> -30002
01> -47874
00> -30017
01> -47872
00> -30019
01> -47885
00> -30003
01> -47884
00> -29987
01> -47872
00> -29998
01> -47855
00> -30011
01> -47854
00> -30006
01> -47862
00> -29982
01> -47860
00> -29963
01> -47843
00> -29973
01> -47832
00> -29996
01> -47823
00> -30004
01> -47838
00> -29988
01> -47845
00> -29979
01> -47839
00> -29983
01> -47824
00> -29998
01> -47817
00> -29997
01> -47829
00> -29987
01> -47827
00> -29987
01> -47821
00> -29993
01> -47814
00> -30004
01> -47814
00> -30002
01> -47814
00> -29977
01> -47810
00> -29965
01> -47802
00> -29973
01> -47786
00> -29980
01> -47772
00> -29982
01> -47781
00> -29975
01> -47792
00> -29964
01> -47794
00> -29965
01> -47790
00> -29981
01> -47774
00> -29984
01> -47767
00> -29974
01> -47767
00> -29955
01> -47755
00> -29952
01> -47734
00> -29966
01> -47724
00> -29962
01> -47729
00> -29951
01> -47731
00> -29938
01> -47721
00> -29937
01> -47702
00> -29951
01> -47685
00> -29954
01> -47682
00> -29941
01> -47679
00> -29939
01> -47681
00> -29942
01> -47665
00> -29952
01> -47652
00> -29952
01> -47650
00> -29936
01> -47657
00> -29922
01> -47651
00> -29923
01> -47641
00> -29944
01> -47642
00> -29956
01> -47658
00> -29942
01> -47663
00> -29932
01> -47659
00> -29937
01> -47654
00> -29949
01> -47653
00> -29951
01> -47667
00> -29941
01> -47684
00> -29932
01> -47682
00> -29942
01> -47684
00> -29959
01> -47692
00> -29956
01> -47692
00> -29937
01> -47692
00> -29928
01> -47683
00> -29930
01> -47672
00> -29939
01> -47671
00> -29944
01> -47680
00> -29936
01> -47697
00> -29932
01> -47695
00> -29933
01> -47678
00> -29944
01> -47673
00> -29957
01> -47686
00> -29954
01> -47702
00> -29949
01> -47708
00> -29952
01> -47693
00> -29965
01> -47686
00> -29968
01> -47696
00> -29962
01> -47712
00> -29957
01> -47712
00> -29959
01> -47702
00> -29982
01> -47703
00> -29992
01> -47712
00> -29984
01> -47731
00> -29968
01> -47726
00> -29974
01> -47720
00> -29988
01> -47717
00> -29996
01> -47724
00> -29996
01> -47740
00> -29993
01> -47742
00> -29995
01> -47728
00> -30004
01> -47716
00> -30003
01> -47720
00> -29989
01> -47714
00> -29982
01> -47710
00> -29991
01> -47701
00> -30009
01> -47702
00> -30011
01> -47707
00> -29999
01> -47717
00> -29995
01> -47719
00> -30001
01> -47709
00> -30011
01> -47701
00> -30011
01> -47700
00> -29999
01> -47707
00> -29990
01> -47709
00> -30006
01> -47709
00> -30019
01> -47708
00> -30028
01> -47716
00> -30019
01> -47710
00> -30009
01> -47704
00> -30009
01> -47691
00> -30020
01> -47677
00> -30022
01> -47686
00> -30007
01> -47692
00> -29994
01> -47685
00> -29985
01> -47652
00> -29999
01> -47632
00> -30011
01> -47638
00> -30001
01> -47640
00> -29984
01> -47625
00> -29978
01> -47599
00> -29985
01> -47591
00> -29987
01> -47594
00> -29979
01> -47602
00> -29971
01> -47594
00> -29964
01> -47581
00> -29972
01> -47579
00> -29979
01> -47582
00> -29970
01> -47589
00> -29956
01> -47582
00> -29957
01> -47566
00> -29966
01> -47557
00> -29969
01> -47556
00> -29960
01> -47564
00> -29944
01> -47565
00> -29939
01> -47549
00> -29935
01> -47528
00> -29932
01> -47527
00> -29917
01> -47523
00> -29910
01> -47511
00> -29918
01> -47496
00> -29934
01> -47492
00> -29932
01> -47495
00> -29910
01> -47491
00> -29897
01> -47492
00> -29897
01> -47474
00> -29905
01> -47456
00> -29909
01> -47464
00> -29897
01> -47467
00> -29880
01> -47454
00> -29879
01> -47439
00> -29893
01> -47432
00> -29897
01> -47434
00> -29892
01> -47441
00> -29874
01> -47426
00> -29878
01> -47426
00> -29894
01> -47434
00> -29896
01> -47436
00> -29878
01> -47437
00> -29860
01> -47429
00> -29861
01> -47411
00> -29873
01> -47396
00> -29868
01> -47398
00> -29852
01> -47401
00> -29835
01> -47382
00> -29845
01> -47370
00> -29871
01> -47366
00> -29877
01> -47364
00> -29862
01> -47356
00> -29848
01> -47351
00> -29842
01> -47327
00> -29850
01> -47322
00> -29857
01> -47335
00> -29846
01> -47335
00> -29838
01> -47331
00> -29848
01> -47319
00> -29866
01> -47314
00> -29861
01> -47310
00> -29844
01> -47307
00> -29831
01> -47297
00> -29832
01> -47281
00> -29846
01> -47276
00> -29849
01> -47278
00> -29839
01> -47279
00> -29835
01> -47281
00> -29839
01> -47268
00> -29854
01> -47255
00> -29855
01> -47243
00> -29838
01> -47239
00> -29822
01> -47232
00> -29820
01> -47219
00> -29837
01> -47220
00> -29854
01> -47241
00> -29847
01> -47249
00> -29833
01> -47237
00> -29827
01> -47217
00> -29843
01> -47204
00> -29854
01> -47210
00> -29834
01> -47216
00> -29812
01> -47212
00> -29817
01> -47204
00> -29828
01> -47196
00> -29829
01> -47189
00> -29817
01> -47184
00> -29797
01> -47170
00> -29801
01> -47156
00> -29817
01> -47147
00> -29818
01> -47137
00> -29807
01> -47141
00> -29801
01> -47150
00> -29806
01> -47135
00> -29817
01> -47122
00> -29834
01> -47129
00> -29826
01> -47137
00> -29809
01> -47132
00> -29816
01> -47127
00> -29831
01> -47116
00> -29832
01> -47121
00> -29826
01> -47132
00> -29817
01> -47136
00> -29812
01> -47119
00> -29815
01> -47109
00> -29814
01> -47112
00> -29802
01> -47115
00> -29789
01> -47110
00> -29789
01> -47099
00> -29817
01> -47097
00> -29832
01> -47102
00> -29822
01> -47113
00> -29817
01> -47115
00> -29818
01> -47107
00> -29824
01> -47106
00> -29833
01> -47114
00> -29822
01> -47117
00> -29804
01> -47115
00> -29812
01> -47107
00> -29828
01> -47102
00> -29830
01> -47102
00> -29816
01> -47108
00> -29797
01> -47105
00> -29794
01> -47089
00> -29801
01> -47077
00> -29811
01> -47084
00> -29805
01> -47101
00> -29792
01> -47103
00> -29788
01> -47090
00> -29802
01> -47079
00> -29818
01> -47079
00> -29808
01> -47080
00> -29787
01> -47074
00> -29785
01> -47056
00> -29797
01> -47051
00> -29816
01> -47061
00> -29812
01> -47070
00> -29796
01> -47067
00> -29784
01> -47047
00> -29795
01> -47042
00> -29809
01> -47060
00> -29799
01> -47071
00> -29787
01> -47068
00> -29797
01> -47066
00> -29816
01> -47066
00> -29824
01> -47069
00> -29811
01> -47071
00> -29792
01> -47054
00> -29784
01> -47033
00> -29785
01> -47021
00> -29792
01> -47026
00> -29785
01> -47038
00> -29773
01> -47042
00> -29774
01> -47035
00> -29789
01> -47025
00> -29804
01> -47030
00> -29796
01> -47033
00> -29779
01> -47022
00> -29767
01> -46996
00> -29779
01> -46984
00> -29793
01> -46991
00> -29784
01> -47001
00> -29774
01> -47002
00> -29774
01> -46999
00> -29784
01> -46997
00> -29790
01> -47005
00> -29773
01> -47006
00> -29759
01> -46994
00> -29772
01> -46996
00> -29797
01> -47001
00> -29809
01> -47005
00> -29792
01> -47004
00> -29773
01> -46999
00> -29784
01> -47002
00> -29802
01> -47002
00> -29808
01> -47004
00> -29794
01> -47006
00> -29771
01> -46991
00> -29776
01> -46977
00> -29799
01> -46979
00> -29817
01> -46984
00> -29816
01> -46987
00> -29807
01> -46986
00> -29794
01> -46971
00> -29792
01> -46953
00> -29806
01> -46958
00> -29806
01> -46973
00> -29794
01> -46980
00> -29802
01> -46982
00> -29819
01> -46990
00> -29832
01> -46996
00> -29831
01> -47009
00> -29823
01> -47012
00> -29818
01> -47004
00> -29828
01> -47004
00> -29849
01> -47017
00> -29837
01> -47019
00> -29812
01> -47006
00> -29812
01> -46997
00> -29819
01> -46987
00> -29822
01> -46983
00> -29818
01> -46987
00> -29808
01> -46994
00> -29822
01> -46996
00> -29827
01> -46983
00> -29827
01> -46978
00> -29815
01> -46984
00> -29794
01> -46979
00> -29790
01> -46956
00> -29804
01> -46949
00> -29820
01> -46963
00> -29817
01> -46979
00> -29805
01> -46976
00> -29812
01> -46969
00> -29829
01> -46968
00> -29842
01> -46969
00> -29834
01> -46989
00> -29821
01> -46991
00> -29818
01> -46972
00> -29832
01> -46966
00> -29839
01> -46972
00> -29832
01> -46987
00> -29812
01> -46986
00> -29807
01> -46971
00> -29814
01> -46966
00> -29812
01> -46976
00> -29802
01> -46977
00> -29785
01> -46974
00> -29775
01> -46957
00> -29782
01> -46943
00> -29801
01> -46954
00> -29795
01> -46968
00> -29771
01> -46968
00> -29766
01> -46955
00> -29778
01> -46951
00> -29783
01> -46953
00> -29781
01> -46966
00> -29769
01> -46976
00> -29767
01> -46977
00> -29777
01> -46976
00> -29794
01> -46986
00> -29787
01> -46998
00> -29776
01> -47001
00> -29772
01> -46989
00> -29774
01> -46969
00> -29787
01> -46977
00> -29787
01> -47000
00> -29775
01> -47007
00> -29766
01> -46987
00> -29776
01> -46966
00> -29772
01> -46956
00> -29756
01> -46955
00> -29747
01> -46957
00> -29751
01> -46961
00> -29774
01> -46968
00> -29782
01> -46976
00> -29771
01> -46984
00> -29756
01> -46987
00> -29756
01> -46977
00> -29776
01> -46979
00> -29793
01> -46994
00> -29794
01> -47004
00> -29774
01> -47006
00> -29766
01> -46997
00> -29790
01> -47004
00> -29804
01> -47007
00> -29794
01> -47004
00> -29779
01> -46993
00> -29775
01> -46982
00> -29784
01> -46973
00> -29796
01> -46982
00> -29786
01> -46988
00> -29781
01> -46987
00> -29782
01> -46983
00> -29792
01> -46971
00> -29804
01> -46971
00> -29789
01> -46968
00> -29769
01> -46968
00> -29774
01> -46967
00> -29796
01> -46961
00> -29817
01> -46971
00> -29818
01> -46989
00> -29814
01> -46999
00> -29818
01> -46996
00> -29831
01> -46994
00> -29843
01> -47001
00> -29842
01> -47005
00> -29830
01> -47011
00> -29836
01> -47009
00> -29856
01> -47011
00> -29879
01> -47034
00> -29879
01> -47046
00> -29862
01> -47042
00> -29854
01> -47026
00> -29866
01> -47009
00> -29883
01> -47009
00> -29873
01> -47014
00> -29852
01> -47011
00> -29853
01> -47005
00> -29864
01> -46997
00> -29871
01> -46990
00> -29872
01> -46990
00> -29859
01> -46986
00> -29846
01> -46973
00> -29854
01> -46972
00> -29861
01> -46974
00> -29856
01> -46977
00> -29844
01> -46980
00> -29837
01> -46972
00> -29849
01> -46971
00> -29864
01> -46977
00> -29852
01> -46973
00> -29826
01> -46967
00> -29827
01> -46972
00> -29844
01> -46976
00> -29856
01> -46977
00> -29856
01> -46986
00> -29842
01> -47000
00> -29846
01> -47002
00> -29859
01> -47002
00> -29866
01> -47002
00> -29857
01> -46998
00> -29839
01> -46993
00> -29836
01> -46986
00> -29851
01> -46981
00> -29854
01> -46968
00> -29844
01> -46956
00> -29827
01> -46955
00> -29816
01> -46946
00> -29824
01> -46931
00> -29841
01> -46922
00> -29838
01> -46930
00> -29829
01> -46936
00> -29821
01> -46924
00> -29827
01> -46909
00> -29842
01> -46912
00> -29821
01> -46906
00> -29797
01> -46894
00> -29797
01> -46889
00> -29817
01> -46889
00> -29832
01> -46894
00> -29826
01> -46901
00> -29817
01> -46910
00> -29821
01> -46915
00> -29824
01> -46904
00> -29834
01> -46896
00> -29834
01> -46902
00> -29824
01> -46903
00> -29815
01> -46886
00> -29818
01> -46876
00> -29828
01> -46880
00> -29816
01> -46879
00> -29801
01> -46884
00> -29799
01> -46877
00> -29821
01> -46869
00> -29829
01> -46859
00> -29816
01> -46856
00> -29801
01> -46859
00> -29790
01> -46854
00> -29804
01> -46856
00> -29820
01> -46864
00> -29814
01> -46876
00> -29801
01> -46885
00> -29799
01> -46890
00> -29818
01> -46894
00> -29837
01> -46896
00> -29850
01> -46912
00> -29842
01> -46924
00> -29837
01> -46919
00> -29846
01> -46918
00> -29863
01> -46931
00> -29867
01> -46955
00> -29857
01> -46970
00> -29851
01> -46969
00> -29862
01> -46957
00> -29880
01> -46959
00> -29877
01> -46966
00> -29859
01> -46971
00> -29859
01> -46968
00> -29883
01> -46976
00> -29899
01> -46989
00> -29889
01> -47003
00> -29874
01> -47005
00> -29867
01> -46997
00> -29881
01> -46987
00> -29901
01> -46986
00> -29902
01> -46986
00> -29886
01> -46994
00> -29877
01> -46989
00> -29881
01> -46976
00> -29884
01> -46962
00> -29874
01> -46965
00> -29861
01> -46973
00> -29854
01> -46971
00> -29857
01> -46955
00> -29866
01> -46945
00> -29861
01> -46954
00> -29856
01> -46954
00> -29854
01> -46945
00> -29864
01> -46938
00> -29875
01> -46936
00> -29873
01> -46939
00> -29856
01> -46938
00> -29852
01> -46929
00> -29864
01> -46923
00> -29879
01> -46934
00> -29885
01> -46952
00> -29866
01> -46952
00> -29856
01> -46951
00> -29873
01> -46956
00> -29892
01> -46960
00> -29890
01> -46966
00> -29867
01> -46968
00> -29861
01> -46952
00> -29875
01> -46946
00> -29884
01> -46946
00> -29876
01> -46947
00> -29866
01> -46950
00> -29862
01> -46941
00> -29870
01> -46927
00> -29889
01> -46927
00> -29897
01> -46946
00> -29879
01> -46952
00> -29867
01> -46936
00> -29871
01> -46920
00> -29877
01> -46919
00> -29876
01> -46930
00> -29871
01> -46947
00> -29857
01> -46945
00> -29865
01> -46946
00> -29883
01> -46952
00> -29874
01> -46951
00> -29864
01> -46945
00> -29866
01> -46934
00> -29874
01> -46926
00> -29892
01> -46939
00> -29902
01> -46957
00> -29884
01> -46961
00> -29866
01> -46939
00> -29876
01> -46929
00> -29884
01> -46930
00> -29881
01> -46932
00> -29871
01> -46936
00> -29857
01> -46925
00> -29861
01> -46902
00> -29877
01> -46899
00> -29876
01> -46904
00> -29853
01> -46904
00> -29841
01> -46894
00> -29856
01> -46892
00> -29868
01> -46892
00> -29871
01> -46894
00> -29865
01> -46899
00> -29862
01> -46897
00> -29874
01> -46892
00> -29879
01> -46894
00> -29878
01> -46904
00> -29867
01> -46911
00> -29856
01> -46908
00> -29854
01> -46895
00> -29866
01> -46896
00> -29868
01> -46905
00> -29855
01> -46904
00> -29846
01> -46891
00> -29851
01> -46882
00> -29869
01> -46881
00> -29872
01> -46884
00> -29854
01> -46887
00> -29839
01> -46876
00> -29842
01> -46867
00> -29853
01> -46861
00> -29851
01> -46862
00> -29845
01> -46864
00> -29854
01> -46876
00> -29856
01> -46872
00> -29852
01> -46861
00> -29851
01> -46862
00> -29841
01> -46862
00> -29831
01> -46854
00> -29827
01> -46827
00> -29837
01> -46815
00> -29834
01> -46816
00> -29831
01> -46826
00> -29822
01> -46827
00> -29818
01> -46807
00> -29823
01> -46801
00> -29824
01> -46801
00> -29811
01> -46794
00> -29808
01> -46788
00> -29821
01> -46785
00> -29832
01> -46785
00> -29826
01> -46783
00> -29812
01> -46776
00> -29809
01> -46773
00> -29818
01> -46766
00> -29829
01> -46757
00> -29822
01> -46759
00> -29798
01> -46750
00> -29791
01> -46736
00> -29806
01> -46732
00> -29821
01> -46733
00> -29818
01> -46734
00> -29802
01> -46742
00> -29798
01> -46741
00> -29811
01> -46739
00> -29810
01> -46727
00> -29804
01> -46726
00> -29802
01> -46729
00> -29793
01> -46712
00> -29799
01> -46703
00> -29810
01> -46689
00> -29815
01> -46691
00> -29809
01> -46710
00> -29804
01> -46717
00> -29819
01> -46719
00> -29837
01> -46724
00> -29837
01> -46722
00> -29823
01> -46723
00> -29816
01> -46729
00> -29827
01> -46727
00> -29845
01> -46729
00> -29840
01> -46732
00> -29832
01> -46739
00> -29841
01> -46750
00> -29859
01> -46761
00> -29876
01> -46778
00> -29876
01> -46795
00> -29861
01> -46799
00> -29844
01> -46791
00> -29865
01> -46797
00> -29902
01> -46822
00> -29919
01> -46847
00> -29907
01> -46859
00> -29894
01> -46864
00> -29912
01> -46865
00> -29941
01> -46879
00> -29946
01> -46901
00> -29929
01> -46907
00> -29921
01> -46906
00> -29941
01> -46904
00> -29954
01> -46906
00> -29964
01> -46918
00> -29951
01> -46921
00> -29939
01> -46914
00> -29947
01> -46913
00> -29953
01> -46906
00> -29952
01> -46905
00> -29944
01> -46913
00> -29941
01> -46919
00> -29950
01> -46912
00> -29964
01> -46909
00> -29964
01> -46919
00> -29950
01> -46924
00> -29939
01> -46921
00> -29942
01> -46906
00> -29950
01> -46896
00> -29946
01> -46898
00> -29935
01> -46896
00> -29937
01> -46904
00> -29951
01> -46904
00> -29964
01> -46904
00> -29966
01> -46914
00> -29950
01> -46914
00> -29939
01> -46899
00> -29942
01> -46885
00> -29952
01> -46877
00> -29956
01> -46882
00> -29946
01> -46890
00> -29939
01> -46890
00> -29952
01> -46883
00> -29972
01> -46884
00> -29954
01> -46886
00> -29932
01> -46881
00> -29929
01> -46877
00> -29942
01> -46867
00> -29957
01> -46859
00> -29953
01> -46863
00> -29945
01> -46879
00> -29937
01> -46879
00> -29939
01> -46871
00> -29942
01> -46862
00> -29942
01> -46864
00> -29935
01> -46873
00> -29927
01> -46862
00> -29931
01> -46855
00> -29951
01> -46853
00> -29952
01> -46861
00> -29931
01> -46865
00> -29916
01> -46859
00> -29922
01> -46851
00> -29937
01> -46842
00> -29955
01> -46856
00> -29946
01> -46867
00> -29935
01> -46870
00> -29935
01> -46867
00> -29947
01> -46869
00> -29951
01> -46880
00> -29941
01> -46879
00> -29928
01> -46877
00> -29936
01> -46868
00> -29958
01> -46869
00> -29961
01> -46872
00> -29941
01> -46859
00> -29918
01> -46836
00> -29927
01> -46829
00> -29944
01> -46836
00> -29945
01> -46842
00> -29934
01> -46842
00> -29924
01> -46829
00> -29931
01> -46809
00> -29947
01> -46806
00> -29950
01> -46817
00> -29934
01> -46826
00> -29921
01> -46821
00> -29927
01> -46813
00> -29947
01> -46813
00> -29955
01> -46820
00> -29954
01> -46841
00> -29949
01> -46846
00> -29952
01> -46837
00> -29966
01> -46837
00> -29966
01> -46846
00> -29952
01> -46851
00> -29932
01> -46829
00> -29929
01> -46806
00> -29947
01> -46812
00> -29957
01> -46824
00> -29944
01> -46829
00> -29926
01> -46814
00> -29924
01> -46790
00> -29942
01> -46782
00> -29939
01> -46782
00> -29912
01> -46772
00> -29898
01> -46756
00> -29911
01> -46744
00> -29934
01> -46743
00> -29934
01> -46744
00> -29916
01> -46751
00> -29904
01> -46743
00> -29904
01> -46734
00> -29917
01> -46733
00> -29916
01> -46739
00> -29907
01> -46737
00> -29907
01> -46735
00> -29919
01> -46731
00> -29926
01> -46726
00> -29921
01> -46730
00> -29911
01> -46742
00> -29896
01> -46736
00> -29901
01> -46716
00> -29924
01> -46715
00> -29931
01> -46724
00> -29909
01> -46720
00> -29892
01> -46714
00> -29899
01> -46713
00> -29907
01> -46707
00> -29906
01> -46710
00> -29884
01> -46702
00> -29854
01> -46677
00> -29844
01> -46664
00> -29858
01> -46657
00> -29866
01> -46669
00> -29853
01> -46691
00> -29837
01> -46692
00> -29831
01> -46677
00> -29844
01> -46676
00> -29839
01> -46678
00> -29810
01> -46678
00> -29803
01> -46675
00> -29827
01> -46686
00> -29849
01> -46707
00> -29851
01> -46729
00> -29832
01> -46749
00> -29822
01> -46764
00> -29830
01> -46769
00> -29841
01> -46773
00> -29842
01> -46769
00> -29849
01> -46790
00> -29841
01> -46802
00> -29846
01> -46794
00> -29866
01> -46792
00> -29871
01> -46794
00> -29847
01> -46804
00> -29839
01> -46811
00> -29849
01> -46813
00> -29854
01> -46807
00> -29855
01> -46807
00> -29848
01> -46822
00> -29841
01> -46832
00> -29848
01> -46834
00> -29865
01> -46839
00> -29869
01> -46846
00> -29851
01> -46852
00> -29841
01> -46848
00> -29843
01> -46828
00> -29861
01> -46821
00> -29872
01> -46839
00> -29851
01> -46843
00> -29832
01> -46836
00> -29836
01> -46831
00> -29850
01> -46818
00> -29852
01> -46817
00> -29839
01> -46819
00> -29834
01> -46823
00> -29834
01> -46824
00> -29849
01> -46826
00> -29856
01> -46830
00> -29854
01> -46836
00> -29849
01> -46836
00> -29849
01> -46826
00> -29859
01> -46829
00> -29855
01> -46824
00> -29845
01> -46822
00> -29841
01> -46830
00> -29850
01> -46831
00> -29864
01> -46832
00> -29867
01> -46837
00> -29856
01> -46840
00> -29845
01> -46827
00> -29852
01> -46811
00> -29872
01> -46813
00> -29870
01> -46819
00> -29850
01> -46823
00> -29831
01> -46814
00> -29836
01> -46798
00> -29852
01> -46797
00> -29862
01> -46799
00> -29851
01> -46801
00> -29841
01> -46796
00> -29839
01> -46776
00> -29860
01> -46777
00> -29874
01> -46787
00> -29861
01> -46795
00> -29848
01> -46790
00> -29846
01> -46786
00> -29856
01> -46783
00> -29869
01> -46785
00> -29859
01> -46794
00> -29849
01> -46802
00> -29851
01> -46794
00> -29856
01> -46782
00> -29848
01> -46776
00> -29834
01> -46773
00> -29817
01> -46765
00> -29826
01> -46764
00> -29844
01> -46761
00> -29849
01> -46768
00> -29829
01> -46767
00> -29818
01> -46755
00> -29829
01> -46748
00> -29841
01> -46741
00> -29848
01> -46747
00> -29842
01> -46765
00> -29822
01> -46755
00> -29823
01> -46743
00> -29846
01> -46747
00> -29862
01> -46757
00> -29849
01> -46767
00> -29829
01> -46764
00> -29826
01> -46752
00> -29846
01> -46747
00> -29860
01> -46761
00> -29849
01> -46772
00> -29841
01> -46773
00> -29843
01> -46767
00> -29847
01> -46748
00> -29853
01> -46742
00> -29849
01> -46747
00> -29830
01> -46742
00> -29822
01> -46722
00> -29831
01> -46703
00> -29835
01> -46707
00> -29826
01> -46711
00> -29806
01> -46697
00> -29799
01> -46669
00> -29811
01> -46650
00> -29817
01> -46637
00> -29801
01> -46630
00> -29772
01> -46616
00> -29767
01> -46593
00> -29781
01> -46583
00> -29781
01> -46576
00> -29769
01> -46572
00> -29756
01> -46577
00> -29764
01> -46569
00> -29772
01> -46566
00> -29779
01> -46564
00> -29766
01> -46569
00> -29754
01> -46566
00> -29752
01> -46551
00> -29771
01> -46552
00> -29790
01> -46564
00> -29777
01> -46574
00> -29760
01> -46581
00> -29762
01> -46572
00> -29784
01> -46566
00> -29806
01> -46578
00> -29797
01> -46599
00> -29781
01> -46601
00> -29789
01> -46599
00> -29812
01> -46608
00> -29834
01> -46614
00> -29837
01> -46629
00> -29831
01> -46639
00> -29832
01> -46632
00> -29851
01> -46634
00> -29874
01> -46652
00> -29876
01> -46671
00> -29862
01> -46669
00> -29862
01> -46661
00> -29874
01> -46658
00> -29882
01> -46669
00> -29877
01> -46679
00> -29869
01> -46683
00> -29872
01> -46678
00> -29884
01> -46671
00> -29886
01> -46672
00> -29877
01> -46677
00> -29863
01> -46677
00> -29864
01> -46666
00> -29879
01> -46658
00> -29886
01> -46657
00> -29874
01> -46667
00> -29857
01> -46670
00> -29860
01> -46668
00> -29875
01> -46662
00> -29886
01> -46665
00> -29881
01> -46672
00> -29868
01> -46669
00> -29861
01> -46656
00> -29879
01> -46649
00> -29896
01> -46662
00> -29884
01> -46665
00> -29864
01> -46657
00> -29864
01> -46650
00> -29874
01> -46638
00> -29888
01> -46637
00> -29886
01> -46647
00> -29876
01> -46652
00> -29872
01> -46652
00> -29881
01> -46638
00> -29882
01> -46632
00> -29872
01> -46636
00> -29854
01> -46634
00> -29852
01> -46624
00> -29863
01> -46609
00> -29876
01> -46607
00> -29872
01> -46611
00> -29859
01> -46615
00> -29859
01> -46601
00> -29874
01> -46599
00> -29879
01> -46603
00> -29870
01> -46611
00> -29858
01> -46614
00> -29859
01> -46602
00> -29867
01> -46596
00> -29871
01> -46597
00> -29860
01> -46607
00> -29846
01> -46608
00> -29846
01> -46596
00> -29867
01> -46590
00> -29881
01> -46597
00> -29876
01> -46601
00> -29861
01> -46601
00> -29865
01> -46609
00> -29873
01> -46596
00> -29882
01> -46585
00> -29889
01> -46593
00> -29884
01> -46591
00> -29890
01> -46588
00> -29914
01> -46589
00> -29929
01> -46597
00> -29918
01> -46603
00> -29905
01> -46602
00> -29906
01> -46589
00> -29926
01> -46580
00> -29936
01> -46577
00> -29926
01> -46581
00> -29921
01> -46597
00> -29922
01> -46599
00> -29935
01> -46594
00> -29941
01> -46587
00> -29937
01> -46583
00> -29930
01> -46588
00> -29931
01> -46591
00> -29947
01> -46592
00> -29956
01> -46599
00> -29951
01> -46608
00> -29927
01> -46602
00> -29919
01> -46589
00> -29933
01> -46581
00> -29946
01> -46574
00> -29936
01> -46572
00> -29931
01> -46579
00> -29933
01> -46567
00> -29946
01> -46564
00> -29954
01> -46556
00> -29944
01> -46547
00> -29931
01> -46546
00> -29931
01> -46543
00> -29938
01> -46532
00> -29943
01> -46532
00> -29941
01> -46546
00> -29933
01> -46551
00> -29936
01> -46551
00> -29939
01> -46544
00> -29946
01> -46546
00> -29946
01> -46554
00> -29943
01> -46549
00> -29946
01> -46544
00> -29950
01> -46522
00> -29952
01> -46506
00> -29944
01> -46513
00> -29929
01> -46519
00> -29928
01> -46515
00> -29938
01> -46497
00> -29950
01> -46493
00> -29944
01> -46494
00> -29931
01> -46491
00> -29927
01> -46484
00> -29933
01> -46474
00> -29931
01> -46469
00> -29930
01> -46484
00> -29923
01> -46491
00> -29931
01> -46491
00> -29941
01> -46484
00> -29952
01> -46492
00> -29949
01> -46502
00> -29926
01> -46495
00> -29919
01> -46486
00> -29932
01> -46486
00> -29952
01> -46500
00> -29944
01> -46509
00> -29927
01> -46500
00> -29919
01> -46477
00> -29936
01> -46457
00> -29946
01> -46447
00> -29937
01> -46449
00> -29927
01> -46452
00> -29927
01> -46446
00> -29932
01> -46433
00> -29932
01> -46424
00> -29921
01> -46426
00> -29897
01> -46408
00> -29889
01> -46391
00> -29911
01> -46390
00> -29926
01> -46407
00> -29924
01> -46423
00> -29911
01> -46431
00> -29909
01> -46423
00> -29930
01> -46416
00> -29949
01> -46416
00> -29938
01> -46423
00> -29917
01> -46425
00> -29907
01> -46419
00> -29922
01> -46411
00> -29947
01> -46424
00> -29947
01> -46433
00> -29928
01> -46422
00> -29917
01> -46406
00> -29926
01> -46391
00> -29934
01> -46387
00> -29924
01> -46391
00> -29913
01> -46392
00> -29917
01> -46381
00> -29926
01> -46361
00> -29926
01> -46355
00> -29914
01> -46350
00> -29901
01> -46347
00> -29898
01> -46339
00> -29913
01> -46330
00> -29927
01> -46336
00> -29925
01> -46356
00> -29904
01> -46363
00> -29896
01> -46352
00> -29917
01> -46348
00> -29933
01> -46354
00> -29921
01> -46362
00> -29909
01> -46360
00> -29912
01> -46351
00> -29937
01> -46356
00> -29940
01> -46362
00> -29926
01> -46361
00> -29907
01> -46359
00> -29893
01> -46336
00> -29909
01> -46327
00> -29929
01> -46331
00> -29929
01> -46340
00> -29914
01> -46347
00> -29907
01> -46332
00> -29910
01> -46317
00> -29914
01> -46302
00> -29901
01> -46287
00> -29883
01> -46275
00> -29884
01> -46264
00> -29894
01> -46256
00> -29897
01> -46254
00> -29883
01> -46257
00> -29866
01> -46249
00> -29866
01> -46237
00> -29877
01> -46227
00> -29901
01> -46241
00> -29909
01> -46267
00> -29897
01> -46274
00> -29893
01> -46267
00> -29912
01> -46271
00> -29931
01> -46285
00> -29928
01> -46306
00> -29909
01> -46308
00> -29899
01> -46296
00> -29907
01> -46291
00> -29922
01> -46295
00> -29928
01> -46301
00> -29912
01> -46302
00> -29902
01> -46299
00> -29915
01> -46296
00> -29931
01> -46304
00> -29936
01> -46316
00> -29922
01> -46320
00> -29919
01> -46316
00> -29936
01> -46318
00> -29951
01> -46322
00> -29951
01> -46333
00> -29946
01> -46345
00> -29940
01> -46339
00> -29954
01> -46339
00> -29969
01> -46349
00> -29960
01> -46356
00> -29945
01> -46356
00> -29949
01> -46356
00> -29968
01> -46354
00> -29982
01> -46353
00> -29972
01> -46354
00> -29954
01> -46355
00> -29946
01> -46349
00> -29949
01> -46331
00> -29951
01> -46315
00> -29954
01> -46321
00> -29950
01> -46331
00> -29944
01> -46319
00> -29941
01> -46297
00> -29948
01> -46297
00> -29951
01> -46312
00> -29932
01> -46325
00> -29919
01> -46312
00> -29936
01> -46303
00> -29949
01> -46306
00> -29946
01> -46308
00> -29947
01> -46318
00> -29952
01> -46312
00> -29961
01> -46299
00> -29980
01> -46301
00> -29974
01> -46305
00> -29951
01> -46303
00> -29939
01> -46299
00> -29941
01> -46282
00> -29956
01> -46283
00> -29963
01> -46307
00> -29959
01> -46320
00> -29956
01> -46299
00> -29965
01> -46284
00> -29969
01> -46279
00> -29967
01> -46280
00> -29949
01> -46284
00> -29937
01> -46273
00> -29947
01> -46270
00> -29956
01> -46269
00> -29959
01> -46292
00> -29949
01> -46307
00> -29939
01> -46292
00> -29961
01> -46283
00> -29976
01> -46284
00> -29961
01> -46284
00> -29937
01> -46282
00> -29933
01> -46266
00> -29948
01> -46247
00> -29960
01> -46241
00> -29966
01> -46256
00> -29956
01> -46266
00> -29949
01> -46265
00> -29952
01> -46246
00> -29956
01> -46235
00> -29958
01> -46246
00> -29942
01> -46250
00> -29937
01> -46246
00> -29944
01> -46237
00> -29957
01> -46238
00> -29966
01> -46252
00> -29957
01> -46262
00> -29941
01> -46245
00> -29944
01> -46224
00> -29954
01> -46217
00> -29957
01> -46227
00> -29948
01> -46242
00> -29942
01> -46241
00> -29952
01> -46233
00> -29959
01> -46235
00> -29947
01> -46228
00> -29936
01> -46229
00> -29935
01> -46227
00> -29944
01> -46221
00> -29960
01> -46226
00> -29956
01> -46238
00> -29939
01> -46229
00> -29927
01> -46214
00> -29945
01> -46206
00> -29951
01> -46202
00> -29949
01> -46209
00> -29939
01> -46214
00> -29924
01> -46204
00> -29938
01> -46194
00> -29947
01> -46192
00> -29941
01> -46196
00> -29927
01> -46197
00> -29928
01> -46191
00> -29944
01> -46186
00> -29957
01> -46185
00> -29946
01> -46183
00> -29926
01> -46182
00> -29911
01> -46169
00> -29915
01> -46146
00> -29932
01> -46144
00> -29940
01> -46151
00> -29927
01> -46152
00> -29921
01> -46153
00> -29929
01> -46147
00> -29942
01> -46136
00> -29934
01> -46133
00> -29913
01> -46136
00> -29899
01> -46132
00> -29914
01> -46131
00> -29939
01> -46136
00> -29937
01> -46136
00> -29920
01> -46137
00> -29911
01> -46133
00> -29919
01> -46130
00> -29932
01> -46131
00> -29931
01> -46136
00> -29917
01> -46139
00> -29910
01> -46137
00> -29924
01> -46132
00> -29941
01> -46136
00> -29942
01> -46144
00> -29929
01> -46152
00> -29909
01> -46139
00> -29924
01> -46127
00> -29949
01> -46126
00> -29949
01> -46134
00> -29939
01> -46140
00> -29936
01> -46136
00> -29951
01> -46140
00> -29957
01> -46136
00> -29957
01> -46132
00> -29947
01> -46138
00> -29934
01> -46134
00> -29941
01> -46121
00> -29949
01> -46114
00> -29949
01> -46124
00> -29941
01> -46131
00> -29938
01> -46127
00> -29942
01> -46107
00> -29954
01> -46107
00> -29959
01> -46122
00> -29949
01> -46136
00> -29939
01> -46135
00> -29937
01> -46124
00> -29947
01> -46122
00> -29949
01> -46124
00> -29937
01> -46127
00> -29932
01> -46128
00> -29942
01> -46117
00> -29958
01> -46109
00> -29955
01> -46114
00> -29941
01> -46117
00> -29933
01> -46107
00> -29940
01> -46091
00> -29945
01> -46077
00> -29941
01> -46074
00> -29930
01> -46078
00> -29922
01> -46074
00> -29935
01> -46065
00> -29954
01> -46066
00> -29952
01> -46071
00> -29937
01> -46071
00> -29927
01> -46075
00> -29936
01> -46071
00> -29947
01> -46070
00> -29946
01> -46067
00> -29925
01> -46069
00> -29914
01> -46070
00> -29929
01> -46063
00> -29954
01> -46068
00> -29959
01> -46077
00> -29941
01> -46079
00> -29931
01> -46075
00> -29933
01> -46056
00> -29942
01> -46046
00> -29937
01> -46046
00> -29939
01> -46062
00> -29933
01> -46061
00> -29941
01> -46045
00> -29956
01> -46039
00> -29951
01> -46034
00> -29929
01> -46036
00> -29907
01> -46029
00> -29914
01> -46017
00> -29935
01> -46024
00> -29932
01> -46024
00> -29934
01> -46038
00> -29941
01> -46042
00> -29957
01> -46037
00> -29977
01> -46049
00> -29991
01> -46063
00> -29990
01> -46080
00> -29972
01> -46074
00> -29972
01> -46056
00> -30002
01> -46066
00> -30022
01> -46083
00> -30011
01> -46082
00> -30000
01> -46066
00> -30014
01> -46053
00> -30027
01> -46047
00> -30034
01> -46053
00> -30027
01> -46064
00> -30026
01> -46062
00> -30036
01> -46047
00> -30038
01> -46022
00> -30037
01> -46024
00> -30033
01> -46044
00> -30028
01> -46047
00> -30036
01> -46037
00> -30050
01> -46034
00> -30050
01> -46037
00> -30040
01> -46051
00> -30046
01> -46064
00> -30058
01> -46067
00> -30072
01> -46062
00> -30067
01> -46059
00> -30048
01> -46059
00> -30044
01> -46061
00> -30053
01> -46049
00> -30071
01> -46041
00> -30076
01> -46044
00> -30056
01> -46044
00> -30044
01> -46042
00> -30049
01> -46029
00> -30059
01> -46011
00> -30068
01> -46017
00> -30062
01> -46034
00> -30061
01> -46032
00> -30059
01> -46015
00> -30066
01> -46004
00> -30064
01> -46006
00> -30060
01> -46022
00> -30050
01> -46024
00> -30059
01> -46028
00> -30092
01> -46046
00> -30102
01> -46060
00> -30091
01> -46064
00> -30073
01> -46052
00> -30074
01> -46039
00> -30096
01> -46041
00> -30102
01> -46056
00> -30089
01> -46069
00> -30066
01> -46056
00> -30061
01> -46034
00> -30072
01> -46021
00> -30075
01> -46019
00> -30068
01> -46026
00> -30065
01> -46030
00> -30069
01> -46013
00> -30076
01> -46003
00> -30076
01> -46011
00> -30061
01> -46009
00> -30047
01> -45999
00> -30054
01> -45983
00> -30067
01> -45976
00> -30067
01> -45977
00> -30062
01> -45994
00> -30057
01> -46001
00> -30059
01> -45998
00> -30083
01> -46009
00> -30089
01> -46027
00> -30077
01> -46045
00> -30069
01> -46043
00> -30069
01> -46029
00> -30075
01> -46016
00> -30075
01> -46020
00> -30062
01> -46031
00> -30056
01> -46032
00> -30054
01> -46021
00> -30058
01> -46012
00> -30054
01> -46009
00> -30039
01> -46017
00> -30012
01> -46003
00> -30019
01> -45993
00> -30032
01> -45987
00> -30041
01> -45993
00> -30029
01> -45997
00> -30007
01> -45984
00> -30009
01> -45961
00> -30020
01> -45947
00> -30022
01> -45953
00> -29999
01> -45951
00> -29989
01> -45947
00> -29991
01> -45941
00> -30001
01> -45939
00> -30011
01> -45941
00> -29999
01> -45952
00> -29988
01> -45948
00> -29996
01> -45936
00> -30011
01> -45942
00> -30012
01> -45953
00> -30001
01> -45965
00> -29989
01> -45966
00> -29983
01> -45937
00> -30002
01> -45924
00> -30014
01> -45936
00> -30004
01> -45949
00> -29994
01> -45953
00> -29996
01> -45939
00> -30011
01> -45931
00> -30015
01> -45929
00> -30002
01> -45931
00> -29986
01> -45926
00> -29989
01> -45921
00> -30006
01> -45914
00> -30022
01> -45920
00> -30025
01> -45931
00> -30022
01> -45939
00> -30027
01> -45932
00> -30033
01> -45931
00> -30039
01> -45947
00> -30034
01> -45952
00> -30023
01> -45954
00> -30027
01> -45940
00> -30043
01> -45936
00> -30051
01> -45942
00> -30037
01> -45953
00> -30021
01> -45956
00> -30027
01> -45943
00> -30051
01> -45936
00> -30068
01> -45945
00> -30059
01> -45946
00> -30027
01> -45923
00> -30024
01> -45906
00> -30041
01> -45898
00> -30043
01> -45901
00> -30031
01> -45911
00> -30026
01> -45905
00> -30029
01> -45882
00> -30036
01> -45864
00> -30039
01> -45869
00> -30034
01> -45876
00> -30007
01> -45867
00> -30001
01> -45851
00> -30022
01> -45851
00> -30026
01> -45854
00> -30004
01> -45855
00> -29982
01> -45847
00> -29972
01> -45832
00> -29971
01> -45813
00> -29961
01> -45811
00> -29949
01> -45814
00> -29939
01> -45814
00> -29947
01> -45811
00> -29962
01> -45814
00> -29967
01> -45823
00> -29955
01> -45829
00> -29930
01> -45829
00> -29919
01> -45807
00> -29932
01> -45790
00> -29943
01> -45790
00> -29936
01> -45794
00> -29914
01> -45783
00> -29912
01> -45771
00> -29927
01> -45771
00> -29937
01> -45790
00> -29926
01> -45805
00> -29902
01> -45796
00> -29902
01> -45790
00> -29924
01> -45793
00> -29946
01> -45809
00> -29936
01> -45815
00> -29915
01> -45809
00> -29918
01> -45802
00> -29927
01> -45789
00> -29922
01> -45776
00> -29908
01> -45778
00> -29906
01> -45791
00> -29910
01> -45788
00> -29919
01> -45775
00> -29921
01> -45773
00> -29911
01> -45779
00> -29892
01> -45777
00> -29891
01> -45769
00> -29905
01> -45761
00> -29914
01> -45759
00> -29912
01> -45771
00> -29899
01> -45773
00> -29892
01> -45761
00> -29895
01> -45745
00> -29910
01> -45757
00> -29902
01> -45771
00> -29892
01> -45772
00> -29898
01> -45762
00> -29907
01> -45752
00> -29911
01> -45759
00> -29913
01> -45780
00> -29895
01> -45777
00> -29887
01> -45760
00> -29909
01> -45750
00> -29923
01> -45747
00> -29914
01> -45751
00> -29897
01> -45756
00> -29896
01> -45741
00> -29905
01> -45727
00> -29905
01> -45729
00> -29897
01> -45740
00> -29889
01> -45738
00> -29889
01> -45728
00> -29902
01> -45722
00> -29906
01> -45724
00> -29901
01> -45736
00> -29896
01> -45736
00> -29892
01> -45729
00> -29909
01> -45733
00> -29916
01> -45742
00> -29902
01> -45749
00> -29895
01> -45756
00> -29897
01> -45756
00> -29909
01> -45745
00> -29918
01> -45743
00> -29917
01> -45752
00> -29906
01> -45746
00> -29911
01> -45743
00> -29925
01> -45739
00> -29932
01> -45741
00> -29921
01> -45743
00> -29907
01> -45745
00> -29904
01> -45729
00> -29901
01> -45709
00> -29904
01> -45699
00> -29902
01> -45699
00> -29890
01> -45694
00> -29881
01> -45669
00> -29884
01> -45654
00> -29885
01> -45642
00> -29869
01> -45628
00> -29859
01> -45616
00> -29857
01> -45604
00> -29866
01> -45597
00> -29872
01> -45596
00> -29855
01> -45598
00> -29835
01> -45596
00> -29834
01> -45586
00> -29844
01> -45578
00> -29854
01> -45582
00> -29843
01> -45592
00> -29829
01> -45592
00> -29816
01> -45567
00> -29812
01> -45541
00> -29816
01> -45535
00> -29811
01> -45541
00> -29784
01> -45535
00> -29766
01> -45521
00> -29771
01> -45512
00> -29783
01> -45524
00> -29775
01> -45534
00> -29750
01> -45530
00> -29736
01> -45516
00> -29742
01> -45492
00> -29748
01> -45481
00> -29742
01> -45488
00> -29724
01> -45493
00> -29723
01> -45496
00> -29742
01> -45497
00> -29759
01> -45511
00> -29747
01> -45530
00> -29729
01> -45531
00> -29726
01> -45526
00> -29751
01> -45521
00> -29766
01> -45532
00> -29757
01> -45551
00> -29739
01> -45550
00> -29735
01> -45534
00> -29749
01> -45529
00> -29764
01> -45534
00> -29757
01> -45547
00> -29742
01> -45552
00> -29744
01> -45545
00> -29754
01> -45534
00> -29764
01> -45539
00> -29770
01> -45541
00> -29759
01> -45534
00> -29768
01> -45537
00> -29785
01> -45542
00> -29793
01> -45551
00> -29792
01> -45563
00> -29767
01> -45552
00> -29761
01> -45544
00> -29784
01> -45555
00> -29789
01> -45561
00> -29781
01> -45562
00> -29779
01> -45566
00> -29783
01> -45563
00> -29795
01> -45555
00> -29806
01> -45552
00> -29799
01> -45557
00> -29780
01> -45556
00> -29778
01> -45543
00> -29794
01> -45537
00> -29809
01> -45539
00> -29804
01> -45542
00> -29786
01> -45545
00> -29786
01> -45549
00> -29802
01> -45546
00> -29819
01> -45542
00> -29827
01> -45564
00> -29820
01> -45577
00> -29812
01> -45566
00> -29826
01> -45566
00> -29841
01> -45569
00> -29836
01> -45581
00> -29829
01> -45588
00> -29836
01> -45584
00> -29854
01> -45575
00> -29859
01> -45579
00> -29854
01> -45596
00> -29841
01> -45600
00> -29833
01> -45584
00> -29844
01> -45574
00> -29857
01> -45579
00> -29852
01> -45581
00> -29842
01> -45582
00> -29837
01> -45574
00> -29849
01> -45559
00> -29860
01> -45560
00> -29851
01> -45565
00> -29836
01> -45569
00> -29831
01> -45559
00> -29844
01> -45547
00> -29857
01> -45555
00> -29858
01> -45568
00> -29839
01> -45569
00> -29834
01> -45561
00> -29842
01> -45558
00> -29848
01> -45562
00> -29842
01> -45569
00> -29832
01> -45577
00> -29832
01> -45576
00> -29841
01> -45578
00> -29853
01> -45584
00> -29843
01> -45594
00> -29823
01> -45596
00> -29812
01> -45591
00> -29824
01> -45583
00> -29835
01> -45586
00> -29836
01> -45602
00> -29826
01> -45604
00> -29817
01> -45594
00> -29827
01> -45589
00> -29834
01> -45591
00> -29831
01> -45595
00> -29822
01> -45593
00> -29818
01> -45584
00> -29827
01> -45572
00> -29846
01> -45574
00> -29842
01> -45581
00> -29826
01> -45581
00> -29815
01> -45564
00> -29821
01> -45549
00> -29832
01> -45561
00> -29831
01> -45579
00> -29817
01> -45588
00> -29817
01> -45586
00> -29828
01> -45583
00> -29846
01> -45589
00> -29834
01> -45591
00> -29806
01> -45584
00> -29799
01> -45566
00> -29814
01> -45551
00> -29839
01> -45553
00> -29842
01> -45570
00> -29822
01> -45574
00> -29830
01> -45571
00> -29852
01> -45559
00> -29867
01> -45556
00> -29859
01> -45559
00> -29841
01> -45550
00> -29853
01> -45553
00> -29877
01> -45560
00> -29894
01> -45562
00> -29897
01> -45574
00> -29888
01> -45577
00> -29887
01> -45576
00> -29901
01> -45567
00> -29914
01> -45566
00> -29922
01> -45577
00> -29906
01> -45574
00> -29897
01> -45559
00> -29909
01> -45554
00> -29927
01> -45560
00> -29926
01> -45563
00> -29916
01> -45564
00> -29916
01> -45562
00> -29930
01> -45555
00> -29936
01> -45557
00> -29926
01> -45557
00> -29902
01> -45547
00> -29894
01> -45527
00> -29911
01> -45522
00> -29927
01> -45526
00> -29922
01> -45531
00> -29911
01> -45534
00> -29902
01> -45519
00> -29909
01> -45501
00> -29911
01> -45491
00> -29906
01> -45497
00> -29889
01> -45507
00> -29890
01> -45516
00> -29905
01> -45512
00> -29911
01> -45510
00> -29903
01> -45510
00> -29885
01> -45511
00> -29872
01> -45505
00> -29882
01> -45512
00> -29901
01> -45531
00> -29900
01> -45541
00> -29877
01> -45531
00> -29863
01> -45529
00> -29866
01> -45517
00> -29876
01> -45511
00> -29879
01> -45523
00> -29870
01> -45524
00> -29866
01> -45516
00> -29876
01> -45508
00> -29887
01> -45514
00> -29877
01> -45522
00> -29855
01> -45521
00> -29852
01> -45512
00> -29872
01> -45511
00> -29891
01> -45523
00> -29890
01> -45535
00> -29867
01> -45529
00> -29856
01> -45513
00> -29864
01> -45508
00> -29879
01> -45513
00> -29867
01> -45511
00> -29854
01> -45511
00> -29848
01> -45504
00> -29853
01> -45494
00> -29865
01> -45496
00> -29867
01> -45505
00> -29851
01> -45506
00> -29851
01> -45499
00> -29867
01> -45492
00> -29892
01> -45484
00> -29900
01> -45492
00> -29888
01> -45494
00> -29879
01> -45489
00> -29882
01> -45478
00> -29897
01> -45470
00> -29905
01> -45483
00> -29905
01> -45496
00> -29907
01> -45494
00> -29930
01> -45494
00> -29956
01> -45504
00> -29951
01> -45514
00> -29935
01> -45527
00> -29939
01> -45531
00> -29955
01> -45521
00> -29981
01> -45524
00> -29993
01> -45542
00> -29987
01> -45552
00> -29984
01> -45544
00> -30010
01> -45534
00> -30042
01> -45556
00> -30048
01> -45581
00> -30046
01> -45589
00> -30043
01> -45576
00> -30049
01> -45554
00> -30066
01> -45555
00> -30062
01> -45567
00> -30057
01> -45579
00> -30069
01> -45581
00> -30092
01> -45575
00> -30112
01> -45569
00> -30120
01> -45571
00> -30117
01> -45584
00> -30114
01> -45577
00> -30126
01> -45566
00> -30147
01> -45566
00> -30144
01> -45577
00> -30121
01> -45576
00> -30117
01> -45569
00> -30142
01> -45572
00> -30178
01> -45589
00> -30186
01> -45607
00> -30177
01> -45620
00> -30168
01> -45614
00> -30177
01> -45605
00> -30187
01> -45605
00> -30192
01> -45621
00> -30181
01> -45632
00> -30179
01> -45631
00> -30197
01> -45620
00> -30219
01> -45622
00> -30222
01> -45631
00> -30212
01> -45644
00> -30213
01> -45642
00> -30222
01> -45621
00> -30237
01> -45612
00> -30241
01> -45619
00> -30219
01> -45619
00> -30214
01> -45613
00> -30221
01> -45602
00> -30242
01> -45606
00> -30247
01> -45610
00> -30241
01> -45621
00> -30233
01> -45619
00> -30240
01> -45613
00> -30255
01> -45607
00> -30254
01> -45602
00> -30239
01> -45604
00> -30233
01> -45603
00> -30239
01> -45592
00> -30242
01> -45582
00> -30248
01> -45587
00> -30230
01> -45580
00> -30213
01> -45569
00> -30221
01> -45564
00> -30246
01> -45562
00> -30242
01> -45571
00> -30214
01> -45568
00> -30211
01> -45565
00> -30228
01> -45557
00> -30241
01> -45549
00> -30239
01> -45553
00> -30221
01> -45546
00> -30211
01> -45536
00> -30222
01> -45529
00> -30228
01> -45531
00> -30224
01> -45534
00> -30222
01> -45544
00> -30206
01> -45527
00> -30209
01> -45504
00> -30229
01> -45509
00> -30234
01> -45524
00> -30219
01> -45526
00> -30207
01> -45519
00> -30219
01> -45514
00> -30236
01> -45509
00> -30236
01> -45519
00> -30216
01> -45517
00> -30202
01> -45502
00> -30204
01> -45479
00> -30206
01> -45465
00> -30201
01> -45460
00> -30191
01> -45466
00> -30182
01> -45462
00> -30190
01> -45449
00> -30197
01> -45436
00> -30187
01> -45434
00> -30167
01> -45439
00> -30165
01> -45446
00> -30185
01> -45445
00> -30202

00> -30198
01> -45446
00> -30172
01> -45439
00> -30166
01> -45429
00> -30171
01> -45410
00> -30179
01> -45400
00> -30182
01> -45404
00> -30164
01> -45405
00> -30139
01> -45389
00> -30139
01> -45373
00> -30152
01> -45364
00> -30158
01> -45375
00> -30142
01> -45371
00> -30132
01> -45354
00> -30135
01> -45339
00> -30134
01> -45331
00> -30123
01> -45331
00> -30105
01> -45325
00> -30089
01> -45316
00> -30089
01> -45316
00> -30105
01> -45318
00> -30106
01> -45324
00> -30080
01> -45322
00> -30066
01> -45314
00> -30067
01> -45299
00> -30079
01> -45287
00> -30076
01> -45285
00> -30057
01> -45283
00> -30043
01> -45275
00> -30041
01> -45265
00> -30053
01> -45263
00> -30052
01> -45265
00> -30034
01> -45271
00> -30016
01> -45254
00> -30009
01> -45228
00> -30012
01> -45211
00> -30010
01> -45210
00> -29996
01> -45211
00> -29981
01> -45199
00> -29982
01> -45186
00> -29983
01> -45169
00> -29975
01> -45167
00> -29960
01> -45177
00> -29949
01> -45189
00> -29968
01> -45203
00> -29978
01> -45206
00> -29969
01> -45214
00> -29957
01> -45228
00> -29940
01> -45224
00> -29940
01> -45212
00> -29947
01> -45203
00> -29951
01> -45209
00> -29941
01> -45215
00> -29921
01> -45205
00> -29912
01> -45189
00> -29919
01> -45182
00> -29911
01> -45179
00> -29892
01> -45181
00> -29884
01> -45177
00> -29888
01> -45170
00> -29891
01> -45154
00> -29877
01> -45141
00> -29856
01> -45144
00> -29832
01> -45135
00> -29832
01> -45119
00> -29840
01> -45114
00> -29843
01> -45124
00> -29834
01> -45134
00> -29811
01> -45132
00> -29806
01> -45126
00> -29817
01> -45127
00> -29817
01> -45135
00> -29801
01> -45143
00> -29789
01> -45137
00> -29800
01> -45136
00> -29814
01> -45139
00> -29816
01> -45146
00> -29802
01> -45154
00> -29780
01> -45150
00> -29777
01> -45134
00> -29786
01> -45131
00> -29785
01> -45131
00> -29774
01> -45138
00> -29751
01> -45124
00> -29746
01> -45104
00> -29760
01> -45102
00> -29769
01> -45112
00> -29758
01> -45123
00> -29743
01> -45122
00> -29746
01> -45118
00> -29761
01> -45117
00> -29759
01> -45121
00> -29741
01> -45123
00> -29739
01> -45126
00> -29747
01> -45129
00> -29759
01> -45133
00> -29760
01> -45132
00> -29746
01> -45134
00> -29735
01> -45134
00> -29735
01> -45119
00> -29749
01> -45116
00> -29761
01> -45134
00> -29752
01> -45153
00> -29738
01> -45144
00> -29735
01> -45120
00> -29747
01> -45103
00> -29752
01> -45111
00> -29741
01> -45128
00> -29729
01> -45133
00> -29735
01> -45114
00> -29744
01> -45094
00> -29741
01> -45099
00> -29721
01> -45108
00> -29700
01> -45102
00> -29704
01> -45092
00> -29729
01> -45094
00> -29743
01> -45115
00> -29735
01> -45136
00> -29727
01> -45145
00> -29731
01> -45141
00> -29741
01> -45134
00> -29746
01> -45140
00> -29734
01> -45150
00> -29722
01> -45151
00> -29726
01> -45141
00> -29735
01> -45130
00> -29742
01> -45141
00> -29731
01> -45147
00> -29725
01> -45141
00> -29733
01> -45140
00> -29751
01> -45136
00> -29760
01> -45142
00> -29747
01> -45151
00> -29727
01> -45144
00> -29731
01> -45132
00> -29747
01> -45125
00> -29752
01> -45129
00> -29757
01> -45141
00> -29751
01> -45137
00> -29760
01> -45136
00> -29780
01> -45139
00> -29785
01> -45147
00> -29767
01> -45150
00> -29749
01> -45149
00> -29759
01> -45141
00> -29789
01> -45138
00> -29799
01> -45149
00> -29784
01> -45157
00> -29763
01> -45153
00> -29774
01> -45146
00> -29803
01> -45154
00> -29811
01> -45158
00> -29796
01> -45160
00> -29780
01> -45151
00> -29781
01> -45136
00> -29792
01> -45129
00> -29802
01> -45136
00> -29801
01> -45146
00> -29789
01> -45143
00> -29791
01> -45123
00> -29803
01> -45109
00> -29819
01> -45116
00> -29806
01> -45119
00> -29794
01> -45122
00> -29793
01> -45122
00> -29799
01> -45115
00> -29819
01> -45136
00> -29817
01> -45164
00> -29809
01> -45162
00> -29822
01> -45157
00> -29846
01> -45162
00> -29850
01> -45168
00> -29841
01> -45171
00> -29834
01> -45167
00> -29841
01> -45161
00> -29859
01> -45156
00> -29867
01> -45163
00> -29855
01> -45167
00> -29843
01> -45162
00> -29855
01> -45165
00> -29879
01> -45172
00> -29886
01> -45179
00> -29874
01> -45185
00> -29859
01> -45178
00> -29862
01> -45154
00> -29876
01> -45143
00> -29883
01> -45141
00> -29869
01> -45144
00> -29863
01> -45151
00> -29863
01> -45146
00> -29867
01> -45140
00> -29874
01> -45141
00> -29868
01> -45143
00> -29866
01> -45143
00> -29883
01> -45149
00> -29897
01> -45156
00> -29899
01> -45162
00> -29895
01> -45171
00> -29884
01> -45174
00> -29879
01> -45161
00> -29889
01> -45151
00> -29901
01> -45149
00> -29891
01> -45156
00> -29876
01> -45161
00> -29881
01> -45150
00> -29898
01> -45146
00> -29917
01> -45154
00> -29916
01> -45168
00> -29904
01> -45171
00> -29907
01> -45157
00> -29926
01> -45159
00> -29932
01> -45168
00> -29927
01> -45171
00> -29907
01> -45165
00> -29915
01> -45162
00> -29934
01> -45167
00> -29938
01> -45174
00> -29927
01> -45177
00> -29915
01> -45180
00> -29914
01> -45174
00> -29932
01> -45171
00> -29942
01> -45178
00> -29937
01> -45184
00> -29924
01> -45182
00> -29930
01> -45176
00> -29937
01> -45166
00> -29938
01> -45165
00> -29932
01> -45171
00> -29924
01> -45174
00> -29920
01> -45162
00> -29932
01> -45156
00> -29942
01> -45160
00> -29931
01> -45164
00> -29922
01> -45161
00> -29931
01> -45152
00> -29947
01> -45141
00> -29956
01> -45142
00> -29952
01> -45150
00> -29943
01> -45151
00> -29946
01> -45143
00> -29965
01> -45139
00> -29980
01> -45148
00> -29971
01> -45159
00> -29957
01> -45161
00> -29969
01> -45160
00> -29991
01> -45162
00> -29997
01> -45167
00> -29990
01> -45177
00> -29980
01> -45186
00> -29978
01> -45184
00> -29991
01> -45175
00> -29995
01> -45172
00> -29984
01> -45171
00> -29977
01> -45171
00> -29979
01> -45167
00> -29989
01> -45157
00> -29994
01> -45151
00> -29991
01> -45151
00> -29981
01> -45148
00> -29977
01> -45131
00> -29991
01> -45127
00> -30001
01> -45134
00> -29991
01> -45143
00> -29989
01> -45152
00> -29991
01> -45151
00> -29999
01> -45142
00> -30004
01> -45141
00> -29986
01> -45147
00> -29962
01> -45152
00> -29953
01> -45142
00> -29973
01> -45141
00> -29996
01> -45149
00> -29994
01> -45157
00> -29971
01> -45151
00> -29957
01> -45140
00> -29968
01> -45142
00> -29976
01> -45147
00> -29961
01> -45151
00> -29945
01> -45160
00> -29941
01> -45154
00> -29957
01> -45148
00> -29966
01> -45142
00> -29952
01> -45147
00> -29939
01> -45151
00> -29936
01> -45140
00> -29941
01> -45122
00> -29947
01> -45116
00> -29933
01> -45120
00> -29917
01> -45119
00> -29931
01> -45108
00> -29955
01> -45104
00> -29960
01> -45103
00> -29953
01> -45116
00> -29940
01> -45122
00> -29941
01> -45125
00> -29949
01> -45119
00> -29954
01> -45107
00> -29944
01> -45108
00> -29934
01> -45111
00> -29936
01> -45106
00> -29952
01> -45100
00> -29963
01> -45101
00> -29951
01> -45107
00> -29936
01> -45109
00> -29935
01> -45109
00> -29944
01> -45097
00> -29953
01> -45094
00> -29942
01> -45097
00> -29929
01> -45096
00> -29935
01> -45087
00> -29955
01> -45086
00> -29967
01> -45093
00> -29957
01> -45097
00> -29932
01> -45092
00> -29921
01> -45080
00> -29934
01> -45072
00> -29939
01> -45072
00> -29935
01> -45082
00> -29921
01> -45088
00> -29931
01> -45090
00> -29947
01> -45083
00> -29951
01> -45079
00> -29942
01> -45084
00> -29928
01> -45086
00> -29922
01> -45082
00> -29932
01> -45069
00> -29942
01> -45069
00> -29936
01> -45080
00> -29914
01> -45076
00> -29906
01> -45065
00> -29915
01> -45051
00> -29933
01> -45054
00> -29930
01> -45056
00> -29914
01> -45045
00> -29917
01> -45035
00> -29924
01> -45027
00> -29921
01> -45019
00> -29909
01> -45021
00> -29897
01> -45014
00> -29900
01> -45007
00> -29917
01> -45013
00> -29927
01> -45019
00> -29917
01> -45029
00> -29906
01> -45037
00> -29903
01> -45030
00> -29913
01> -45024
00> -29927
01> -45026
00> -29927
01> -45042
00> -29917
01> -45048
00> -29909
01> -45039
00> -29924
01> -45027
00> -29932
01> -45024
00> -29932
01> -45030
00> -29916
01> -45035
00> -29907
01> -45031
00> -29922
01> -45017
00> -29944
01> -45014
00> -29937
01> -45019
00> -29913
01> -45016
00> -29899
01> -45004
00> -29904
01> -44990
00> -29915
01> -44986
00> -29907
01> -44986
00> -29897
01> -44986
00> -29908
01> -44986
00> -29926
01> -44991
00> -29937
01> -44992
00> -29922
01> -44999
00> -29903
01> -45006
00> -29899
01> -45002
00> -29919
01> -44994
00> -29941
01> -45002
00> -29937
01> -45014
00> -29919
01> -45006
00> -29914
01> -44994
00> -29932
01> -44996
00> -29944
01> -44993
00> -29932
01> -44996
00> -29908
01> -44989
00> -29898
01> -44969
00> -29915
01> -44958
00> -29932
01> -44964
00> -29924
01> -44970
00> -29906
01> -44969
00> -29898
01> -44953
00> -29906
01> -44946
00> -29921
01> -44949
00> -29919
01> -44955
00> -29904
01> -44956
00> -29897
01> -44946
00> -29907
01> -44934
00> -29911
01> -44936
00> -29909
01> -44946
00> -29893
01> -44947
00> -29886
01> -44936
00> -29897
01> -44925
00> -29919
01> -44931
00> -29933
01> -44953
00> -29917
01> -44967
00> -29902
01> -44957
00> -29912
01> -44935
00> -29921
01> -44925
00> -29908
01> -44924
00> -29888
01> -44922
00> -29884
01> -44914
00> -29896
01> -44902
00> -29906
01> -44895
00> -29902
01> -44892
00> -29882
01> -44884
00> -29873
01> -44863
00> -29894
01> -44859
00> -29916
01> -44872
00> -29917
01> -44889
00> -29892
01> -44892
00> -29871
01> -44886
00> -29885
01> -44884
00> -29905
01> -44886
00> -29906
01> -44898
00> -29906
01> -44916
00> -29907
01> -44914
00> -29918
01> -44909
00> -29926
01> -44913
00> -29916
01> -44919
00> -29896
01> -44916
00> -29896
01> -44914
00> -29913
01> -44906
00> -29930
01> -44909
00> -29925
01> -44921
00> -29905
01> -44927
00> -29899
01> -44917
00> -29916
01> -44908
00> -29927
01> -44899
00> -29914
01> -44898
00> -29900
01> -44901
00> -29903
01> -44898
00> -29926
01> -44897
00> -29942
01> -44907
00> -29934
01> -44915
00> -29913
01> -44912
00> -29907
01> -44904
00> -29922
01> -44901
00> -29936
01> -44902
00> -29931
01> -44904
00> -29913
01> -44902
00> -29919
01> -44913
00> -29938
01> -44914
00> -29946
01> -44914
00> -29939
01> -44921
00> -29922
01> -44914
00> -29920
01> -44906
00> -29926
01> -44900
00> -29934
01> -44900
00> -29928
01> -44902
00> -29909
01> -44903
00> -29901
01> -44898
00> -29911
01> -44890
00> -29921
01> -44884
00> -29918
01> -44887
00> -29904
01> -44891
00> -29904
01> -44882
00> -29919
01> -44872
00> -29924
01> -44867
00> -29917
01> -44868
00> -29914
01> -44881
00> -29921
01> -44888
00> -29937
01> -44889
00> -29944
01> -44891
00> -29937
01> -44895
00> -29920
01> -44902
00> -29917
01> -44901
00> -29931
01> -44887
00> -29939
01> -44877
00> -29931
01> -44877
00> -29927
01> -44883
00> -29918
01> -44879
00> -29931
01> -44872
00> -29941
01> -44873
00> -29934
01> -44868
00> -29923
01> -44859
00> -29921
01> -44850
00> -29931
01> -44849
00> -29935
01> -44851
00> -29936
01> -44856
00> -29916
01> -44845
00> -29900
01> -44827
00> -29905
01> -44802
00> -29916
01> -44792
00> -29917
01> -44801
00> -29907
01> -44808
00> -29903
01> -44806
00> -29918
01> -44802
00> -29927
01> -44796
00> -29920
01> -44804
00> -29906
01> -44814
00> -29907
01> -44814
00> -29916
01> -44805
00> -29931
01> -44799
00> -29926
01> -44802
00> -29912
01> -44811
00> -29905
01> -44806
00> -29921
01> -44791
00> -29930
01> -44787
00> -29921
01> -44791
00> -29910
01> -44802
00> -29907
01> -44792
00> -29904
01> -44769
00> -29911
01> -44757
00> -29896
01> -44755
00> -29867
01> -44739
00> -29868
01> -44734
00> -29887
01> -44732
00> -29899
01> -44727
00> -29891
01> -44736
00> -29875
01> -44743
00> -29870
01> -44738
00> -29877
01> -44719
00> -29892
01> -44714
00> -29896
01> -44724
00> -29877
01> -44732
00> -29869
01> -44738
00> -29871
01> -44736
00> -29886
01> -44740
00> -29894
01> -44757
00> -29879
01> -44764
00> -29878
01> -44775
00> -29899
01> -44782
00> -29913
01> -44785
00> -29906
01> -44798
00> -29897
01> -44807
00> -29899
01> -44808
00> -29915
01> -44814
00> -29941
01> -44828
00> -29939
01> -44849
00> -29929
01> -44867
00> -29919
01> -44869
00> -29924
01> -44859
00> -29944
01> -44870
00> -29951
01> -44892
00> -29937
01> -44904
00> -29935
01> -44920
00> -29953
01> -44929
00> -29964
01> -44932
00> -29960
01> -44942
00> -29953
01> -44962
00> -29954
01> -44974
00> -29971
01> -44976
00> -29985
01> -44974
00> -29992
01> -44997
00> -29999
01> -45019
00> -29994
01> -45027
00> -29998
01> -45022
00> -30004
01> -45026
00> -29997
01> -45016
00> -29986
01> -45007
00> -29989
01> -45017
00> -29999
01> -45017
00> -30013
01> -45015
00> -30009
01> -45031
00> -29990
01> -45047
00> -29981
01> -45044
00> -29994
01> -45041
00> -30010
01> -45046
00> -30004
01> -45046
00> -29990
01> -45047
00> -29980
01> -45049
00> -29999
01> -45050
00> -30014
01> -45043
00> -30005
01> -45031
00> -29987
01> -45039
00> -29977
01> -45039
00> -29976
01> -45011
00> -29989
01> -45001
00> -29996
01> -45011
00> -29987
01> -45034
00> -29979
01> -45026
00> -29992
01> -45013
00> -29996
01> -45003
00> -30000
01> -44999
00> -29995
01> -45015
00> -29986
01> -45021
00> -29985
01> -44997
00> -30000
01> -44981
00> -29994
01> -44972
00> -29969
01> -44976
00> -29957
01> -44974
00> -29967
01> -44972
00> -29984
01> -44977
00> -29991
01> -44986
00> -29983
01> -44998
00> -29973
01> -44984
00> -29976
01> -44977
00> -29983
01> -44974
00> -29979
01> -44968
00> -29959
01> -44961
00> -29949
01> -44967
00> -29961
01> -44964
00> -29977
01> -44951
00> -29981
01> -44951
00> -29966
01> -44954
00> -29949
01> -44946
00> -29949
01> -44922
00> -29959
01> -44912
00> -29966
01> -44914
00> -29959
01> -44932
00> -29942
01> -44932
00> -29947
01> -44919
00> -29959
01> -44912
00> -29967
01> -44912
00> -29957
01> -44915
00> -29941
01> -44914
00> -29946
01> -44910
00> -29956
01> -44906
00> -29956
01> -44906
00> -29947
01> -44907
00> -29941
01> -44901
00> -29943
01> -44882
00> -29957
01> -44878
00> -29960
01> -44886
00> -29944
01> -44906
00> -29941
01> -44902
00> -29954
01> -44891
00> -29965
01> -44886
00> -29951
01> -44889
00> -29939
01> -44899
00> -29939
01> -44903
00> -29944
01> -44889
00> -29952
01> -44869
00> -29955
01> -44886
00> -29938
01> -44898
00> -29926
01> -44879
00> -29933
01> -44849
00> -29963
01> -44859
00> -29971
01> -44864
00> -29952
01> -44857
00> -29941
01> -44864
00> -29948
01> -44862
00> -29962
01> -44858
00> -29971
01> -44861
00> -29956
01> -44867
00> -29949
01> -44874
00> -29953
01> -44859
00> -29969
01> -44858
00> -29984
01> -44889
00> -29972
01> -44888
00> -29951
01> -44857
00> -29954
01> -44839
00> -29973
01> -44840
00> -29974
01> -44847
00> -29959
01> -44851
00> -29945
01> -44841
00> -29954
01> -44842
00> -29976
01> -44843
00> -29979
01> -44850
00> -29964
01> -44849
00> -29946
01> -44836
00> -29946
01> -44817
00> -29964
01> -44826
00> -29977
01> -44841
00> -29968
01> -44847
00> -29956
01> -44849
00> -29967
01> -44850
00> -29975
01> -44826
00> -29979
01> -44829
00> -29968
01> -44848
00> -29948
01> -44837
00> -29947
01> -44824
00> -29969
01> -44828
00> -29976
01> -44831
00> -29956
01> -44837
00> -29938
01> -44826
00> -29937
01> -44791
00> -29949
01> -44769
00> -29952
01> -44762
00> -29954
01> -44776
00> -29949
01> -44811
00> -29937
01> -44792
00> -29936
01> -44761
00> -29925
01> -44744
00> -29922
01> -44747
00> -29921
01> -44751
00> -29923
01> -44757
00> -29936
01> -44755
00> -29933
01> -44748
00> -29919
01> -44751
00> -29919
01> -44755
00> -29922
01> -44751
00> -29937
01> -44761
00> -29939
01> -44764
00> -29917
01> -44753
00> -29895
01> -44727
00> -29896
01> -44711
00> -29926
01> -44741
00> -29936
01> -44773
00> -29916
01> -44754
00> -29895
01> -44727
00> -29897
01> -44721
00> -29916
01> -44712
00> -29919
01> -44703
00> -29905
01> -44717
00> -29883
01> -44714
00> -29882
01> -44692
00> -29892
01> -44667
00> -29898
01> -44671
00> -29894
01> -44696
00> -29878
01> -44696
00> -29875
01> -44674
00> -29887
01> -44678
00> -29884
01> -44669
00> -29860
01> -44632
00> -29856
01> -44654
00> -29864
01> -44667
00> -29869
01> -44632
00> -29876
01> -44616
00> -29863
01> -44630
00> -29852
01> -44673
00> -29852
01> -44668
00> -29849
01> -44632
00> -29842
01> -44624
00> -29828
01> -44625
00> -29821
01> -44614
00> -29825
01> -44597
00> -29844
01> -44604
00> -29845
01> -44604
00> -29825
01> -44591
00> -29813
01> -44606
00> -29818
01> -44617
00> -29833
01> -44583
00> -29838
01> -44578
00> -29834
01> -44591
00> -29826
01> -44594
00> -29824
01> -44580
00> -29825
01> -44542
00> -29823
01> -44516
00> -29809
01> -44529
00> -29796
01> -44552
00> -29816
01> -44563
00> -29838
01> -44557
00> -29841
01> -44534
00> -29822
01> -44547
00> -29813
01> -44554
00> -29816
01> -44567
00> -29819
01> -44551
00> -29832
01> -44542
00> -29827
01> -44541
00> -29809
01> -44526
00> -29808
01> -44509
00> -29827
01> -44510
00> -29837
01> -44520
00> -29821
01> -44507
00> -29804
01> -44496
00> -29809
01> -44492
00> -29831
01> -44498
00> -29847
01> -44502
00> -29836
01> -44495
00> -29812
01> -44486
00> -29816
01> -44485
00> -29836
01> -44489
00> -29841
01> -44499
00> -29827
01> -44496
00> -29811
01> -44489
00> -29816
01> -44477
00> -29837
01> -44487
00> -29841
01> -44512
00> -29834
01> -44505
00> -29827
01> -44480
00> -29837
01> -44462
00> -29849
01> -44454
00> -29851
01> -44462
00> -29841
01> -44471
00> -29837
01> -44454
00> -29840
01> -44452
00> -29856
01> -44444
00> -29862
01> -44428
00> -29852
01> -44433
00> -29841
01> -44435
00> -29841
01> -44426
00> -29843
01> -44399
00> -29856
01> -44408
00> -29851
01> -44417
00> -29834
01> -44404
00> -29838
01> -44402
00> -29856
01> -44414
00> -29866
01> -44417
00> -29857
01> -44420
00> -29849
01> -44419
00> -29849
01> -44403
00> -29864
01> -44386
00> -29874
01> -44391
00> -29863
01> -44391
00> -29852
01> -44373
00> -29861
01> -44373
00> -29884
01> -44381
00> -29886
01> -44387
00> -29868
01> -44380
00> -29858
01> -44367
00> -29864
01> -44347
00> -29877
01> -44327
00> -29894
01> -44334
00> -29890
01> -44334
00> -29871
01> -44317
00> -29871
01> -44314
00> -29889
01> -44311
00> -29898
01> -44309
00> -29886
01> -44308
00> -29874
01> -44304
00> -29871
01> -44300
00> -29892
01> -44297
00> -29900
01> -44295
00> -29896
01> -44319
00> -29880
01> -44312
00> -29879
01> -44286
00> -29886
01> -44272
00> -29890
01> -44281
00> -29887
01> -44302
00> -29888
01> -44315
00> -29892
01> -44310
00> -29891
01> -44291
00> -29898
01> -44289
00> -29892
01> -44292
00> -29877
01> -44295
00> -29882
01> -44297
00> -29898
01> -44294
00> -29907
01> -44292
00> -29911
01> -44304
00> -29896
01> -44306
00> -29882
01> -44282
00> -29890
01> -44266
00> -29900
01> -44264
00> -29899
01> -44276
00> -29886
01> -44274
00> -29889
01> -44267
00> -29904
01> -44256
00> -29916
01> -44259
00> -29909
01> -44269
00> -29886
01> -44269
00> -29882
01> -44245
00> -29893
01> -44224
00> -29899
01> -44228
00> -29899
01> -44235
00> -29884
01> -44226
00> -29885
01> -44227
00> -29909
01> -44227
00> -29919
01> -44232
00> -29907
01> -44233
00> -29889
01> -44228
00> -29883
01> -44207
00> -29897
01> -44189
00> -29919
01> -44198
00> -29920
01> -44211
00> -29918
01> -44222
00> -29919
01> -44208
00> -29924
01> -44195
00> -29929
01> -44195
00> -29922
01> -44199
00> -29914
01> -44191
00> -29911
01> -44176
00> -29926
01> -44175
00> -29949
01> -44187
00> -29950
01> -44201
00> -29942
01> -44204
00> -29946
01> -44209
00> -29965
01> -44201
00> -29979
01> -44194
00> -29976
01> -44206
00> -29961
01> -44207
00> -29960
01> -44192
00> -29976
01> -44193
00> -29985
01> -44197
00> -29982
01> -44204
00> -29970
01> -44202
00> -29964
01> -44192
00> -29971
01> -44182
00> -29985
01> -44180
00> -29981
01> -44191
00> -29969
01> -44202
00> -29964
01> -44201
00> -29979
01> -44191
00> -29997
01> -44196
00> -29994
01> -44211
00> -29983
01> -44213
00> -29991
01> -44215
00> -30014
01> -44221
00> -30024
01> -44229
00> -30014
01> -44240
00> -30004
01> -44245
00> -30001
01> -44234
00> -30014
01> -44224
00> -30023
01> -44232
00> -30017
01> -44253
00> -30001
01> -44257
00> -29994
01> -44257
00> -30006
01> -44252
00> -30013
01> -44249
00> -30009
01> -44262
00> -29991
01> -44258
00> -29989
01> -44252
00> -29999
01> -44252
00> -30001
01> -44256
00> -29987
01> -44261
00> -29973
01> -44266
00> -29978
01> -44262
00> -29989
01> -44257
00> -29996
01> -44269
00> -29984
01> -44277
00> -29957
01> -44277
00> -29952
01> -44274
00> -29969
01> -44276
00> -29986
01> -44286
00> -29987
01> -44302
00> -29974
01> -44314
00> -29966
01> -44316
00> -29969
01> -44306
00> -29969
01> -44306
00> -29957
01> -44313
00> -29940
01> -44326
00> -29942
01> -44322
00> -29956
01> -44311
00> -29966
01> -44301
00> -29962
01> -44306
00> -29945
01> -44304
00> -29936
01> -44296
00> -29946
01> -44292
00> -29957
01> -44303
00> -29957
01> -44319
00> -29937
01> -44308
00> -29926
01> -44291
00> -29937
01> -44283
00> -29947
01> -44284
00> -29942
01> -44293
00> -29924
01> -44299
00> -29917
01> -44297
00> -29937
01> -44298
00> -29954
01> -44299
00> -29952
01> -44304
00> -29937
01> -44300
00> -29938
01> -44296
00> -29949
01> -44279
00> -29956
01> -44274
00> -29959
01> -44281
00> -29951
01> -44286
00> -29946
01> -44271
00> -29954
01> -44251
00> -29955
01> -44239
00> -29942
01> -44234
00> -29927
01> -44222
00> -29912
01> -44192
00> -29922
01> -44156
00> -29937
01> -44136
00> -29926
01> -44118
00> -29911
01> -44094
00> -29904
01> -44066
00> -29926
01> -44052
00> -29945
01> -44047
00> -29933
01> -44030
00> -29912
01> -44001
00> -29912
01> -43967
00> -29923
01> -43919
00> -29934
01> -43862
00> -29924
01> -43804
00> -29916
01> -43732
00> -29916
01> -43645
00> -29926
01> -43560
00> -29931
01> -43491
00> -29920
01> -43429
00> -29899
01> -43360
00> -29891
01> -43286
00> -29906
01> -43214
00> -29910
01> -43145
00> -29898
01> -43062
00> -29884
01> -42983
00> -29890
01> -42899
00> -29906
01> -42817
00> -29913
01> -42745
00> -29902
01> -42671
00> -29877
01> -42591
00> -29867
01> -42506
00> -29885
01> -42426
00> -29901
01> -42364
00> -29895
01> -42311
00> -29874
01> -42262
00> -29865
01> -42205
00> -29887
01> -42149
00> -29894
01> -42104
00> -29889
01> -42067
00> -29874
01> -42027
00> -29875
01> -41985
00> -29892
01> -41947
00> -29901
01> -41916
00> -29894
01> -41895
00> -29887
01> -41889
00> -29882
01> -41864
00> -29898
01> -41837
00> -29922
01> -41827
00> -29927
01> -41824
00> -29921
01> -41821
00> -29937
01> -41824
00> -29967
01> -41819
00> -29987
01> -41821
00> -29991
01> -41839
00> -29984
01> -41862
00> -29987
01> -41867
00> -30018
01> -41882
00> -30038
01> -41924
00> -30037
01> -41976
00> -30022
01> -42016
00> -30026
01> -42034
00> -30043
01> -42069
00> -30076
01> -42130
00> -30092
01> -42207
00> -30089
01> -42277
00> -30092
01> -42327
00> -30109
01> -42377
00> -30128
01> -42444
00> -30125
01> -42516
00> -30112
01> -42590
00> -30104
01> -42647
00> -30116
01> -42695
00> -30129
01> -42749
00> -30139
01> -42816
00> -30125
01> -42876
00> -30119
01> -42921
00> -30126
01> -42950
00> -30147
01> -42989
00> -30146
01> -43032
00> -30126
01> -43071
00> -30112
01> -43089
00> -30116
01> -43099
00> -30130
01> -43128
00> -30129
01> -43161
00> -30121
01> -43195
00> -30121
01> -43222
00> -30137
01> -43236
00> -30149
01> -43251
00> -30150
01> -43276
00> -30129
01> -43298
00> -30122
01> -43304
00> -30132
01> -43312
00> -30145
01> -43321
00> -30140
01> -43345
00> -30127
01> -43365
00> -30120
01> -43376
00> -30128
01> -43381
00> -30144
01> -43389
00> -30136
01> -43397
00> -30117
01> -43399
00> -30109
01> -43405
00> -30109
01> -43399
00> -30119
01> -43398
00> -30109
01> -43419
00> -30102
01> -43439
00> -30105
01> -43441
00> -30112
01> -43435
00> -30117
01> -43433
00> -30113
01> -43461
00> -30107
01> -43497
00> -30107
01> -43517
00> -30115
01> -43521
00> -30122
01> -43543
00> -30122
01> -43574
00> -30106
01> -43591
00> -30085
01> -43601
00> -30086
01> -43605
00> -30111
01> -43631
00> -30114
01> -43671
00> -30092
01> -43694
00> -30086
01> -43711
00> -30096
01> -43725
00> -30104
01> -43730
00> -30096
01> -43747
00> -30079
01> -43760
00> -30076
01> -43768
00> -30082
01> -43766
00> -30088
01> -43771
00> -30078
01> -43784
00> -30063
01> -43795
00> -30057
01> -43789
00> -30064
01> -43789
00> -30076
01> -43803
00> -30071
01> -43812
00> -30055
01> -43812
00> -30058
01> -43821
00> -30070
01> -43828
00> -30079
01> -43833
00> -30079
01> -43850
00> -30064
01> -43864
00> -30056
01> -43869
00> -30070
01> -43868
00> -30080
01> -43867
00> -30085
01> -43882
00> -30066
01> -43886
00> -30051
01> -43887
00> -30069
01> -43891
00> -30092
01> -43911
00> -30099
01> -43924
00> -30089
01> -43938
00> -30087
01> -43949
00> -30101
01> -43950
00> -30117
01> -43964
00> -30129
01> -43982
00> -30131
01> -43997
00> -30137
01> -44024
00> -30162
01> -44041
00> -30185
01> -44055
00> -30184
01> -44068
00> -30166
01> -44067
00> -30157
01> -44074
00> -30170
01> -44071
00> -30187
01> -44079
00> -30194
01> -44097
00> -30179
01> -44109
00> -30171
01> -44102
00> -30191
01> -44103
00> -30206
01> -44104
00> -30203
01> -44114
00> -30186
01> -44128
00> -30176
01> -44133
00> -30178
01> -44122
00> -30187
01> -44116
00> -30198
01> -44129
00> -30190
01> -44137
00> -30172
01> -44128
00> -30168
01> -44114
00> -30181
01> -44122
00> -30183
01> -44137
00> -30172
01> -44148
00> -30166
01> -44150
00> -30174
01> -44151
00> -30192
01> -44165
00> -30196
01> -44184
00> -30177
01> -44196
00> -30163
01> -44191
00> -30173
01> -44180
00> -30184
01> -44172
00> -30186
01> -44179
00> -30182
01> -44199
00> -30162
01> -44194
00> -30166
01> -44189
00> -30186
01> -44193
00> -30192
01> -44198
00> -30178
01> -44201
00> -30167
01> -44190
00> -30171
01> -44167
00> -30184
01> -44165
00> -30186
01> -44182
00> -30174
01> -44197
00> -30176
01> -44208
00> -30180
01> -44200
00> -30186
01> -44193
00> -30186
01> -44204
00> -30167
01> -44206
00> -30146
01> -44192
00> -30156
01> -44192
00> -30176
01> -44209
00> -30184
01> -44228
00> -30179
01> -44244
00> -30176
01> -44246
00> -30177
01> -44244
00> -30185
01> -44251
00> -30178
01> -44266
00> -30170
01> -44282
00> -30162
01> -44280
00> -30173
01> -44280
00> -30192
01> -44276
00> -30187
01> -44284
00> -30168
01> -44291
00> -30157
01> -44284
00> -30170
01> -44276
00> -30171
01> -44270
00> -30166
01> -44261
00> -30164
01> -44283
00> -30159
01> -44292
00> -30162
01> -44282
00> -30167
01> -44268
00> -30168
01> -44269
00> -30149
01> -44274
00> -30133
01> -44271
00> -30145
01> -44271
00> -30169
01> -44287
00> -30174
01> -44302
00> -30154
01> -44307
00> -30144
01> -44299
00> -30152
01> -44283
00> -30174
01> -44286
00> -30184
01> -44307
00> -30171
01> -44319
00> -30163
01> -44322
00> -30169
01> -44314
00> -30180
01> -44296
00> -30186
01> -44299
00> -30172
01> -44308
00> -30156
01> -44306
00> -30152
01> -44287
00> -30166
01> -44279
00> -30173
01> -44295
00> -30167
01> -44312
00> -30159
01> -44309
00> -30161
01> -44299
00> -30169
01> -44290
00> -30174
01> -44299
00> -30161
01> -44309
00> -30140
01> -44306
00> -30139
01> -44294
00> -30172
01> -44312
00> -30188
01> -44335
00> -30175
01> -44347
00> -30155
01> -44341
00> -30152
01> -44330
00> -30169
01> -44327
00> -30181
01> -44336
00> -30168
01> -44348
00> -30151
01> -44342
00> -30158
01> -44331
00> -30179
01> -44324
00> -30191
01> -44332
00> -30186
01> -44348
00> -30171
01> -44359
00> -30172
01> -44349
00> -30174
01> -44332
00> -30176
01> -44338
00> -30167
01> -44345
00> -30147
01> -44339
00> -30141
01> -44309
00> -30159
01> -44294
00> -30173
01> -44306
00> -30161
01> -44317
00> -30144
01> -44304
00> -30143
01> -44274
00> -30145
01> -44246
00> -30137
01> -44222
00> -30137
01> -44217
00> -30127
01> -44202
00> -30121
01> -44173
00> -30127
01> -44144
00> -30131
01> -44138
00> -30122
01> -44139
00> -30102
01> -44109
00> -30097
01> -44079
00> -30114
01> -44070
00> -30128
01> -44074
00> -30113
01> -44061
00> -30096
01> -44042
00> -30090
01> -44015
00> -30094
01> -43988
00> -30102
01> -43981
00> -30092
01> -43988
00> -30076
01> -43986
00> -30078
01> -43977
00> -30096
01> -43972
00> -30096
01> -43977
00> -30079
01> -43984
00> -30075
01> -43984
00> -30084
01> -43972
00> -30107
01> -43969
00> -30127
01> -43979
00> -30129
01> -43993
00> -30129
01> -44001
00> -30134
01> -43992
00> -30150
01> -43977
00> -30157
01> -43975
00> -30146
01> -43986
00> -30141
01> -43992
00> -30161
01> -43984
00> -30179
01> -43982
00> -30189
01> -43976
00> -30179
01> -43968
00> -30166
01> -43949
00> -30172
01> -43941
00> -30197
01> -43944
00> -30204
01> -43942
00> -30194
01> -43932
00> -30187
01> -43920
00> -30189
01> -43896
00> -30201
01> -43876
00> -30206
01> -43862
00> -30200
01> -43853
00> -30189
01> -43835
00> -30188
01> -43804
00> -30209
01> -43794
00> -30220
01> -43798
00> -30201
01> -43789
00> -30188
01> -43768
00> -30197
01> -43737
00> -30212
01> -43712
00> -30217
01> -43698
00> -30202
01> -43686
00> -30194
01> -43675
00> -30189
01> -43642
00> -30191
01> -43590
00> -30201
01> -43566
00> -30204
01> -43564
00> -30194
01> -43545
00> -30191
01> -43509
00> -30205
01> -43473
00> -30210
01> -43445
00> -30196
01> -43421
00> -30180
01> -43398
00> -30181
01> -43361
00> -30189
01> -43326
00> -30202
01> -43318
00> -30204
01> -43322
00> -30198
01> -43319
00> -30199
01> -43289
00> -30212
01> -43261
00> -30216
01> -43238
00> -30204
01> -43222
00> -30192
01> -43193
00> -30201
01> -43159
00> -30222
01> -43136
00> -30222
01> -43116
00> -30214
01> -43107
00> -30202
01> -43085
00> -30196
01> -43051
00> -30208
01> -43022
00> -30220
01> -43006
00> -30213
01> -42988
00> -30206
01> -42961
00> -30210
01> -42927
00> -30218
01> -42889
00> -30214
01> -42857
00> -30206
01> -42842
00> -30200
01> -42832
00> -30204
01> -42799
00> -30217
01> -42771
00> -30229
01> -42761
00> -30223
01> -42755
00> -30209
01> -42728
00> -30216
01> -42701
00> -30229
01> -42679
00> -30231
01> -42669
00> -30219
01> -42660
00> -30201
01> -42630
00> -30197
01> -42593
00> -30224
01> -42581
00> -30242
01> -42586
00> -30237
01> -42586
00> -30215
01> -42558
00> -30215
01> -42524
00> -30230
01> -42498
00> -30233
01> -42481
00> -30222
01> -42471
00> -30209
01> -42459
00> -30213
01> -42441
00> -30225
01> -42416
00> -30228
01> -42406
00> -30221
01> -42411
00> -30215
01> -42403
00> -30217
01> -42376
00> -30227
01> -42364
00> -30237
01> -42369
00> -30232
01> -42381
00> -30219
01> -42382
00> -30222
01> -42379
00> -30237
01> -42370
00> -30234
01> -42377
00> -30226
01> -42389
00> -30211
01> -42387
00> -30204
01> -42376
00> -30232
01> -42382
00> -30247
01> -42394
00> -30236
01> -42400
00> -30222
01> -42399
00> -30217
01> -42385
00> -30226
01> -42372
00> -30231
01> -42361
00> -30219
01> -42359
00> -30210
01> -42358
00> -30207
01> -42348
00> -30214
01> -42340
00> -30222
01> -42348
00> -30226
01> -42364
00> -30221
01> -42374
00> -30220
01> -42371
00> -30236
01> -42374
00> -30243
01> -42382
00> -30229
01> -42402
00> -30208
01> -42411
00> -30212
01> -42406
00> -30224
01> -42394
00> -30234
01> -42391
00> -30226
01> -42399
00> -30207
01> -42398
00> -30201
01> -42398
00> -30213
01> -42401
00> -30220
01> -42404
00> -30207
01> -42406
00> -30187
01> -42401
00> -30184
01> -42384
00> -30201
01> -42377
00> -30205
01> -42374
00> -30186
01> -42366
00> -30165
01> -42360
00> -30161
01> -42340
00> -30167
01> -42306
00> -30173
01> -42295
00> -30155
01> -42288
00> -30122
01> -42269
00> -30101
01> -42232
00> -30107
01> -42214
00> -30117
01> -42217
00> -30107
01> -42220
00> -30092
01> -42213
00> -30087
01> -42199
00> -30094
01> -42200
00> -30096
01> -42207
00> -30081
01> -42212
00> -30066
01> -42213
00> -30070
01> -42214
00> -30091
01> -42224
00> -30106
01> -42231
00> -30096
01> -42242
00> -30089
01> -42256
00> -30096
01> -42259
00> -30110
01> -42259
00> -30119
01> -42262
00> -30114
01> -42279
00> -30106
01> -42305
00> -30117
01> -42320
00> -30136
01> -42321
00> -30145
01> -42324
00> -30141
01> -42341
00> -30127
01> -42357
00> -30124
01> -42370
00> -30146
01> -42387
00> -30161
01> -42406
00> -30161
01> -42428
00> -30153
01> -42451
00> -30160
01> -42464
00> -30188
01> -42474
00> -30201
01> -42496
00> -30194
01> -42517
00> -30179
01> -42521
00> -30178
01> -42514
00> -30190
01> -42512
00> -30201
01> -42524
00> -30194
01> -42548
00> -30184
01> -42571
00> -30178
01> -42572
00> -30199
01> -42569
00> -30216
01> -42573
00> -30204
01> -42581
00> -30186
01> -42582
00> -30181
01> -42576
00> -30192
01> -42579
00> -30201
01> -42587
00> -30194
01> -42608
00> -30186
01> -42631
00> -30185
01> -42644
00> -30201
01> -42648
00> -30209
01> -42657
00> -30202
01> -42686
00> -30187
01> -42694
00> -30182
